# Averaged Data //Vboxsvr/xafsdata/Standards/2L_Fhy_sand_001_fl.avg created by SamView
6880.0	0.0223175752908
6890.23828125	0.0226315613836
6900.47607422	0.0229524932802
6910.71435547	0.0232852455229
6920.95214844	0.0236279703677
6931.19042969	0.0238069482148
6941.42871094	0.0240809898823
6951.66650391	0.024262169376
6961.90478516	0.0245063398033
6972.14306641	0.024834221229
6982.38085938	0.0250461641699
6992.61914063	0.0253613870591
7002.85693359	0.0259119533002
7013.09521484	0.0265696384013
7023.33349609	0.026931790635
7033.57128906	0.0271875467151
7043.80957031	0.02763379924
7054.04785156	0.0282385591418
7064.28564453	0.0288666058332
7074.52392578	0.0296879969537
7084.76171875	0.0309996046126
7095.0	0.0328222922981
7095.25	0.0328400209546
7095.5	0.0329407379031
7095.75	0.0329730473459
7096.0	0.032988730818
7096.25	0.0330858454108
7096.5	0.0331046879292
7096.75	0.0331855155528
7097.0	0.0332479476929
7097.25	0.0333106704056
7097.5	0.0333580113947
7097.75	0.0334973968565
7098.0	0.0335576534271
7098.25	0.0336341373622
7098.5	0.0336214564741
7098.75	0.0337985269725
7099.0	0.0338926017284
7099.25	0.0338704027236
7099.5	0.0339415594935
7099.75	0.0340934544802
7100.0	0.0341415368021
7100.25	0.0342433713377
7100.5	0.0343921333551
7100.75	0.0344161204994
7101.0	0.0345393195748
7101.25	0.0346434824169
7101.5	0.0347195640206
7101.75	0.0348688215017
7102.0	0.0349061489105
7102.25	0.0350206531584
7102.5	0.0351184681058
7102.75	0.0352494679391
7103.0	0.0353552140296
7103.25	0.0354604050517
7103.5	0.0355618968606
7103.75	0.0356753244996
7104.0	0.0357905179262
7104.25	0.0358952209353
7104.5	0.0360283665359
7104.75	0.0361724197865
7105.0	0.036294259131
7105.25	0.0364614911377
7105.5	0.0366261303425
7105.75	0.0368227139115
7106.0	0.0370105355978
7106.25	0.0371773652732
7106.5	0.0373629629612
7106.75	0.0375166609883
7107.0	0.0377194061875
7107.25	0.0379937440157
7107.5	0.0381671078503
7107.75	0.0383806079626
7108.0	0.0386413857341
7108.25	0.0389029048383
7108.5	0.0391509830952
7108.75	0.0395012646914
7109.0	0.0398200638592
7109.25	0.0401665382087
7109.5	0.0405986532569
7109.75	0.0410108231008
7110.0	0.0415750332177
7110.25	0.0421365462244
7110.5	0.0428718551993
7110.75	0.0437531545758
7111.0	0.0447726659477
7111.25	0.0460803285241
7111.5	0.0478838272393
7111.75	0.0503223799169
7112.0	0.0531350001693
7112.25	0.0569971315563
7112.5	0.061560831964
7112.75	0.0666824579239
7113.0	0.071285314858
7113.25	0.0759141594172
7113.5	0.0793634876609
7113.75	0.081833653152
7114.0	0.0826720967889
7114.25	0.0822635516524
7114.5	0.0809017941356
7114.75	0.0790724977851
7115.0	0.0771977901459
7115.25	0.0755098462105
7115.5	0.074590049684
7115.75	0.0742439180613
7116.0	0.0744713395834
7116.25	0.0749303922057
7116.5	0.0756464675069
7116.75	0.0766045153141
7117.0	0.0774165093899
7117.25	0.0785090625286
7117.5	0.0796244964004
7117.75	0.0808623284101
7118.0	0.0821879804134
7118.25	0.0839677900076
7118.5	0.0859233662486
7118.75	0.0884995087981
7119.0	0.0913380756974
7119.25	0.095237404108
7119.5	0.0997544229031
7119.75	0.105326168239
7120.0	0.111503727734
7120.25	0.119498185813
7120.5	0.128587201238
7120.75	0.13901810348
7121.0	0.150921180844
7121.25	0.165008321404
7121.5	0.180851206183
7121.75	0.196894660592
7122.0	0.215262323618
7122.25	0.234522789717
7122.5	0.25527998805
7122.75	0.273836374283
7123.0	0.29438918829
7123.25	0.313813716173
7123.5	0.333160191774
7123.75	0.350238770247
7124.0	0.368832826614
7124.25	0.386089801788
7124.5	0.405269145966
7124.75	0.422383606434
7125.0	0.442941695452
7125.25	0.462439894676
7125.5	0.485510438681
7125.75	0.505333185196
7126.0	0.530752360821
7126.25	0.553908348083
7126.5	0.579881131649
7126.75	0.601688861847
7127.0	0.627524554729
7127.25	0.649742603302
7127.5	0.673199653625
7127.75	0.69277715683
7128.0	0.714683890343
7128.25	0.732920885086
7128.5	0.751808941364
7128.75	0.767240047455
7129.0	0.784142315388
7129.25	0.798298239708
7129.5	0.812304139137
7129.75	0.823955535889
7130.0	0.836296319962
7130.25	0.846900045872
7130.5	0.857066988945
7130.75	0.865503132343
7131.0	0.874327540398
7131.25	0.881206810474
7131.5	0.887266516685
7131.75	0.891631603241
7132.0	0.895535230637
7132.25	0.897950351238
7132.5	0.899041354656
7132.75	0.898709535599
7133.0	0.897618889809
7133.25	0.894792735577
7133.5	0.891234457493
7133.75	0.887106060982
7134.0	0.882193863392
7134.25	0.87650346756
7134.5	0.870832681656
7134.75	0.865117073059
7135.0	0.859372079372
7135.25	0.852947711945
7135.5	0.848049044609
7135.75	0.842657506466
7136.0	0.837598145008
7136.25	0.832532167435
7136.5	0.828654527664
7136.75	0.824213504791
7137.0	0.820314228535
7137.25	0.816255688667
7137.5	0.812568187714
7137.75	0.80803245306
7138.0	0.804457426071
7138.25	0.799968183041
7138.5	0.795874536037
7138.75	0.7913428545
7139.0	0.786957800388
7139.25	0.782028913498
7139.5	0.777834415436
7139.75	0.772594630718
7140.0	0.768092930317
7140.25	0.76274985075
7140.5	0.75869178772
7140.75	0.753654301167
7141.0	0.749733567238
7141.25	0.744713366032
7141.5	0.741106987
7141.75	0.736513257027
7142.0	0.73279607296
7142.25	0.729172706604
7142.5	0.725904583931
7142.75	0.722627341747
7143.0	0.719898283482
7143.25	0.717193007469
7143.5	0.715122163296
7143.75	0.712902545929
7144.0	0.711528301239
7144.25	0.710084378719
7144.5	0.708963036537
7144.75	0.708250522614
7145.0	0.707736551762
7145.25	0.707337141037
7145.5	0.70707911253
7145.75	0.706341564655
7146.0	0.706403195858
7146.25	0.705886244774
7146.5	0.705180108547
7146.75	0.704549729824
7147.0	0.703212440014
7147.25	0.701820671558
7147.5	0.700221836567
7147.75	0.698135674
7148.0	0.695813953876
7148.25	0.693162381649
7148.5	0.690288066864
7148.75	0.686984479427
7149.0	0.683416724205
7149.25	0.679965615273
7149.5	0.675800681114
7149.75	0.671956062317
7150.0	0.667761385441
7150.25	0.663831412792
7150.5	0.659480810165
7150.75	0.655301451683
7151.0	0.650736451149
7151.25	0.647136330605
7151.5	0.64312517643
7151.75	0.639131605625
7152.0	0.635284483433
7152.25	0.632072150707
7152.5	0.628530800343
7152.75	0.625268578529
7153.0	0.622208833694
7153.25	0.619320213795
7153.5	0.616306006908
7153.75	0.613852858543
7154.0	0.611000657082
7154.25	0.608956336975
7154.5	0.606560111046
7154.75	0.603966355324
7155.0	0.601865828037
7155.25	0.599737882614
7155.5	0.597747325897
7155.75	0.596057534218
7156.0	0.59385228157
7156.25	0.592064857483
7156.5	0.590187191963
7156.75	0.588648080826
7157.0	0.586915969849
7157.25	0.585684418678
7157.5	0.583714485168
7157.75	0.582500934601
7158.0	0.58127862215
7158.25	0.579884409904
7158.5	0.578651189804
7158.75	0.577712237835
7159.0	0.576968252659
7159.25	0.575685203075
7159.5	0.574956834316
7159.75	0.574162125587
7160.0	0.57356262207
7161.09472656	0.572156190872
7162.20947266	0.57314658165
7163.34326172	0.576120853424
7164.49707031	0.580891788006
7165.67041016	0.587420880795
7166.86376953	0.595514714718
7168.07617188	0.604740858078
7169.30859375	0.615475177765
7170.56005859	0.627241194248
7171.83154297	0.639328181744
7173.12304688	0.652063131332
7174.43359375	0.665759384632
7175.76367188	0.677428424358
7177.11376953	0.6847230196
7178.48339844	0.690364956856
7179.87255859	0.695495665073
7181.28173828	0.69938737154
7182.70996094	0.702486872673
7184.15820313	0.70414429903
7185.62597656	0.704930782318
7187.11328125	0.705139160156
7188.62011719	0.705164253712
7190.14648438	0.704870522022
7191.69287109	0.703580617905
7193.25878906	0.702025413513
7194.84423828	0.700257837772
7196.44921875	0.698610424995
7198.07373047	0.696789979935
7199.71826172	0.69511204958
7201.38183594	0.692875623703
7203.06542969	0.690401256084
7204.76855469	0.687572598457
7206.49169922	0.684620320797
7208.23388672	0.681693375111
7209.99609375	0.678983330727
7211.77783203	0.676656067371
7213.57910156	0.674752950668
7215.39990234	0.67342954874
7217.24023438	0.673153042793
7219.10058594	0.673160910606
7220.98046875	0.673718571663
7222.87988281	0.674348711967
7224.79882813	0.675203919411
7226.73730469	0.675987124443
7228.69580078	0.676519870758
7230.67333984	0.676599800587
7232.67089844	0.676270067692
7234.68798828	0.675909519196
7236.72509766	0.675082445145
7238.78125	0.67426854372
7240.85742188	0.673517465591
7242.953125	0.672995746136
7245.06835938	0.673085212708
7247.203125	0.673747956753
7249.35742188	0.675237119198
7251.53173828	0.677450597286
7253.72558594	0.680606901646
7255.93896484	0.685439646244
7258.171875	0.688121080399
7260.42431641	0.689194738865
7262.69677734	0.695542156696
7264.98828125	0.699210464954
7267.29980469	0.702120542526
7269.63085938	0.704592227936
7271.98193359	0.706369638443
7274.35205078	0.707763314247
7276.7421875	0.708679080009
7279.15185547	0.70901966095
7281.58105469	0.708872675896
7284.02978516	0.708267569542
7286.49804688	0.707098662853
7288.98632813	0.705595016479
7291.49414063	0.703666210175
7294.02148438	0.70187240839
7296.56835938	0.700115680695
7299.13476563	0.698779344559
7301.72119141	0.697503626347
7304.32666016	0.696597158909
7306.95214844	0.696235835552
7309.59716797	0.696252346039
7312.26220703	0.696692883968
7314.94628906	0.697281301022
7317.65039063	0.698432683945
7320.37353516	0.699731111526
7323.11669922	0.700856149197
7325.87988281	0.702338814735
7328.66210938	0.703651428223
7331.46435547	0.704973757267
7334.28564453	0.705774903297
7337.12695313	0.706443071365
7339.98828125	0.706735610962
7342.86865234	0.706914305687
7345.76855469	0.706933379173
7348.68847656	0.706706047058
7351.62792969	0.706579327583
7354.58691406	0.706436991692
7357.56542969	0.70672506094
7360.56396484	0.707258939743
7363.58154297	0.707868516445
7366.61914063	0.708903491497
7369.67626953	0.709916353226
7372.75292969	0.711082816124
7375.84960938	0.712423563004
7378.96533203	0.713580489159
7382.10107422	0.714864015579
7385.25634766	0.716075539589
7388.43115234	0.71726924181
7391.62597656	0.718327760696
7394.83984375	0.719494581223
7398.07373047	0.720527172089
7401.32714844	0.721195220947
7404.60009766	0.721908688545
7407.89257813	0.722267329693
7411.20458984	0.722485840321
7414.53662109	0.72269320488
7417.88818359	0.722808837891
7421.25927734	0.722706496716
7424.64990234	0.722722947598
7428.06005859	0.722712934017
7431.49023438	0.722919523716
7434.93994141	0.723483741283
7438.40917969	0.723986208439
7441.89794922	0.724840581417
7445.40625	0.725627064705
7448.93457031	0.726546943188
7452.48193359	0.727465510368
7456.04931641	0.728587150574
7459.63623047	0.72961807251
7463.24316406	0.7306381464
7466.86914063	0.73171132803
7470.51513672	0.732479155064
7474.18017578	0.733460307121
7477.86523438	0.734299898148
7481.5703125	0.735072255135
7485.29443359	0.735992193222
7489.03857422	0.736784934998
7492.80175781	0.737673223019
7496.58496094	0.738505959511
7500.38769531	0.739404559135
7504.21044922	0.740271985531
7508.05224609	0.741074204445
7511.9140625	0.741922676563
7515.79541016	0.74295848608
7519.69628906	0.743952691555
7523.61669922	0.745256185532
7527.55712891	0.746145009995
7531.51660156	0.747235953808
7535.49609375	0.748265683651
7539.49511719	0.749398231506
7543.51367188	0.750476002693
7547.55175781	0.751558899879
7551.60986328	0.752375543118
7555.6875	0.753551602364
7559.78466797	0.754362523556
7563.90136719	0.755448520184
7568.03759766	0.75666564703
7572.19384766	0.757656812668
7576.36914063	0.758719801903
7580.56445313	0.759764790535
7584.77929688	0.760837554932
7589.01367188	0.761974453926
7593.26806641	0.763166189194
7597.54199219	0.764252543449
7601.83496094	0.765403270721
7606.14794922	0.766674458981
7610.48046875	0.767796278
7614.83300781	0.768935620785
7619.20458984	0.770405232906
7623.59619141	0.771670103073
7628.00732422	0.772945225239
7632.43798828	0.774134337902
7636.88818359	0.775226294994
7641.35839844	0.776402294636
7645.84814453	0.777807235718
7650.35742188	0.779243409634
7654.88623047	0.780653297901
7659.43457031	0.782193601131
7664.00244141	0.783477544785
7668.59033203	0.784653961658
7673.19775391	0.785919129848
7677.82470703	0.787267506123
7682.47119141	0.788760364056
7687.13720703	0.790239036083
7691.82324219	0.791729867458
7696.52832031	0.793215990067
7701.25341797	0.794738531113
7705.99804688	0.796330451965
7710.76269531	0.797919988632
7715.54638672	0.799453437328
7720.35009766	0.80083245039
7725.17333984	0.80233246088
7730.01611328	0.803813278675
7734.87841797	0.805140078068
7739.76025391	0.8064904809
7744.66210938	0.807763695717
7749.58349609	0.808996200562
7754.52441406	0.810370326042
7759.48486328	0.811607658863
7764.46484375	0.81308478117
7769.46484375	0.814615309238
7774.484375	0.816126167774
7779.5234375	0.817653894424
7784.58203125	0.819215357304
7789.66015625	0.820766687393
7794.7578125	0.822506844997
7799.87548828	0.824032783508
7805.01269531	0.825535953045
7810.16943359	0.827087819576
7815.34570313	0.828747630119
7820.54199219	0.830386161804
7825.75732422	0.831891059875
7830.99267578	0.833539366722
7836.24755859	0.83503729105
7841.52197266	0.836498379707
7846.81591797	0.838146805763
7852.12988281	0.839746296406
7857.46337891	0.84130692482
7862.81640625	0.842930495739
7868.18896484	0.844585835934
7873.58105469	0.846151530743
7878.99267578	0.847662806511
7884.42431641	0.849008023739
7889.87548828	0.850687742233
7895.34619141	0.852479100227
7900.83642578	0.853965520859
7906.34667969	0.855537116528
7911.87597656	0.857415854931
7917.42529297	0.85921806097
7922.99414063	0.860819637775
7928.58251953	0.862441897392
7934.19042969	0.864101469517
7939.81835938	0.86562615633
7945.46582031	0.867284178734
7951.1328125	0.869000792503
7956.81933594	0.87064665556
7962.52539063	0.872576832771
7968.25097656	0.874246716499
7973.99658203	0.87574338913
7979.76171875	0.877198040485
7985.54638672	0.878823339939
7991.35058594	0.880371570587
7997.17480469	0.882013201714
8003.01806641	0.883441627026
8008.88134766	0.884811341763
8014.76416016	0.886457383633
8020.66650391	0.888129293919
8026.58837891	0.889563918114
8032.53027344	0.891241014004
8038.49169922	0.892687261105
8044.47216797	0.894214749336
8050.47314453	0.895836651325
8056.49316406	0.897330760956
8062.53271484	0.898797690868
8068.59228516	0.900340437889
8074.67138672	0.901884019375
8080.77001953	0.903466880322
8086.88818359	0.904874563217
8093.02587891	0.906285226345
8099.18359375	0.907929360867
8105.36083984	0.909410476685
