# Averaged Data //Vboxsvr/xafsdata/Standards/6L_ferrihydrite_001_fl.avg created by SamView
6880.0	0.159551307559
6890.23828125	0.159906983376
6900.47607422	0.16095136106
6910.71435547	0.161225259304
6920.95214844	0.162488952279
6931.19042969	0.163525909185
6941.42871094	0.164577245712
6951.66650391	0.165977776051
6961.90478516	0.166916504502
6972.14306641	0.16802573204
6982.38085938	0.169606417418
6992.61914063	0.170262888074
7002.85693359	0.17367516458
7013.09521484	0.175785034895
7023.33349609	0.17853975296
7033.57128906	0.181012779474
7043.80957031	0.184622690082
7054.04785156	0.188636407256
7064.28564453	0.194996550679
7074.52392578	0.202434614301
7084.76171875	0.214501217008
7095.0	0.235960006714
7095.25	0.236859217286
7095.5	0.237371489406
7095.75	0.238454312086
7096.0	0.238941907883
7096.25	0.239904269576
7096.5	0.240917012095
7096.75	0.24117167294
7097.0	0.242338091135
7097.25	0.243434891105
7097.5	0.24426266551
7097.75	0.244964763522
7098.0	0.245530903339
7098.25	0.246297419071
7098.5	0.247576653957
7098.75	0.248849958181
7099.0	0.2495033741
7099.25	0.251188784838
7099.5	0.251701623201
7099.75	0.252756476402
7100.0	0.253880470991
7100.25	0.255155831575
7100.5	0.256440460682
7100.75	0.258165597916
7101.0	0.258775353432
7101.25	0.260216295719
7101.5	0.261484593153
7101.75	0.262840867043
7102.0	0.264326572418
7102.25	0.265704363585
7102.5	0.267592340708
7102.75	0.268813490868
7103.0	0.270327210426
7103.25	0.27161732316
7103.5	0.274115115404
7103.75	0.275310993195
7104.0	0.276931792498
7104.25	0.279620409012
7104.5	0.280974537134
7104.75	0.283370137215
7105.0	0.28503498435
7105.25	0.287418335676
7105.5	0.289942622185
7105.75	0.292582452297
7106.0	0.295066565275
7106.25	0.297402232885
7106.5	0.300274193287
7106.75	0.303253024817
7107.0	0.306567251682
7107.25	0.310070306063
7107.5	0.313831359148
7107.75	0.318038791418
7108.0	0.321268469095
7108.25	0.325967073441
7108.5	0.332674324512
7108.75	0.337209552526
7109.0	0.344304710627
7109.25	0.351992636919
7109.5	0.360715329647
7109.75	0.370005935431
7110.0	0.38364058733
7110.25	0.400126844645
7110.5	0.422009587288
7110.75	0.447278797626
7111.0	0.482658982277
7111.25	0.520882606506
7111.5	0.570308029652
7111.75	0.617295861244
7112.0	0.675236701965
7112.25	0.72539049387
7112.5	0.771115958691
7112.75	0.805314779282
7113.0	0.829627454281
7113.25	0.841673076153
7113.5	0.843420386314
7113.75	0.837237894535
7114.0	0.822846531868
7114.25	0.803609848022
7114.5	0.78688621521
7114.75	0.776010096073
7115.0	0.770980596542
7115.25	0.77443754673
7115.5	0.780889570713
7115.75	0.790226399899
7116.0	0.802248716354
7116.25	0.817180097103
7116.5	0.832996368408
7116.75	0.850956559181
7117.0	0.870683431625
7117.25	0.893717229366
7117.5	0.917568027973
7117.75	0.950972914696
7118.0	0.989262878895
7118.25	1.04006791115
7118.5	1.09142792225
7118.75	1.16207802296
7119.0	1.23627603054
7119.25	1.33326458931
7119.5	1.43365418911
7119.75	1.56473481655
7120.0	1.69843828678
7120.25	1.86942648888
7120.5	2.03551316261
7120.75	2.24565815926
7121.0	2.45287823677
7121.25	2.69608521461
7121.5	2.91681241989
7121.75	3.18958878517
7122.0	3.42881536484
7122.25	3.6923391819
7122.5	3.92296457291
7122.75	4.19934177399
7123.0	4.44925737381
7123.25	4.70574569702
7123.5	4.94747829437
7123.75	5.22091197968
7124.0	5.46939849854
7124.25	5.73974227905
7124.5	6.00272321701
7124.75	6.29001188278
7125.0	6.56873083115
7125.25	6.85392045975
7125.5	7.14523553848
7125.75	7.4393863678
7126.0	7.73466348648
7126.25	8.01655769348
7126.5	8.30076980591
7126.75	8.56981563568
7127.0	8.83264541626
7127.25	9.05802631378
7127.5	9.29183578491
7127.75	9.50183200836
7128.0	9.7032699585
7128.25	9.86915016174
7128.5	10.0365943909
7128.75	10.1759605408
7129.0	10.3121032715
7129.25	10.41447258
7129.5	10.5227851868
7129.75	10.6040172577
7130.0	10.6825580597
7130.25	10.7389087677
7130.5	10.7923536301
7130.75	10.831533432
7131.0	10.8574523926
7131.25	10.8778562546
7131.5	10.8877458572
7131.75	10.8817710876
7132.0	10.8707590103
7132.25	10.8519077301
7132.5	10.8211965561
7132.75	10.7840509415
7133.0	10.735666275
7133.25	10.688911438
7133.5	10.6317367554
7133.75	10.576461792
7134.0	10.5166063309
7134.25	10.4529657364
7134.5	10.3892717361
7134.75	10.3355121613
7135.0	10.2692565918
7135.25	10.2202882767
7135.5	10.1617736816
7135.75	10.1103878021
7136.0	10.0598840714
7136.25	10.0061588287
7136.5	9.94806194305
7136.75	9.89513587952
7137.0	9.84572219849
7137.25	9.79563903809
7137.5	9.74470329285
7137.75	9.68854999542
7138.0	9.63179111481
7138.25	9.57606697083
7138.5	9.51913261414
7138.75	9.46489810944
7139.0	9.41433429718
7139.25	9.35806846619
7139.5	9.30585098267
7139.75	9.25621032715
7140.0	9.20639705658
7140.25	9.15959644318
7140.5	9.11495780945
7140.75	9.06511306763
7141.0	9.03107833862
7141.25	8.98645687103
7141.5	8.95659255981
7141.75	8.91812324524
7142.0	8.88931465149
7142.25	8.85890007019
7142.5	8.83384799957
7142.75	8.80724716187
7143.0	8.79329299927
7143.25	8.77180767059
7143.5	8.75598907471
7143.75	8.74122428894
7144.0	8.73035621643
7144.25	8.71282672882
7144.5	8.70488452911
7144.75	8.69006729126
7145.0	8.68007946014
7145.25	8.66100788116
7145.5	8.64917373657
7145.75	8.62766933441
7146.0	8.61260414124
7146.25	8.5853509903
7146.5	8.56042385101
7146.75	8.53500461578
7147.0	8.50568580627
7147.25	8.46859741211
7147.5	8.43293571472
7147.75	8.3917798996
7148.0	8.35175132751
7148.25	8.30792808533
7148.5	8.265873909
7148.75	8.21706390381
7149.0	8.17472171783
7149.25	8.1249256134
7149.5	8.07972145081
7149.75	8.03234577179
7150.0	7.98736381531
7150.25	7.9391336441
7150.5	7.8970208168
7150.75	7.85179805756
7151.0	7.80916261673
7151.25	7.76972579956
7151.5	7.73212242126
7151.75	7.69000148773
7152.0	7.66014146805
7152.25	7.62322568893
7152.5	7.5887928009
7152.75	7.55939340591
7153.0	7.52652311325
7153.25	7.5006108284
7153.5	7.47112798691
7153.75	7.44525384903
7154.0	7.42083501816
7154.25	7.39618635178
7154.5	7.37415790558
7154.75	7.34850120544
7155.0	7.32766485214
7155.25	7.30849123001
7155.5	7.2866973877
7155.75	7.27084159851
7156.0	7.25185966492
7156.25	7.2371635437
7156.5	7.22037363052
7156.75	7.20888996124
7157.0	7.1914434433
7157.25	7.1837387085
7157.5	7.16922664642
7157.75	7.16539335251
7158.0	7.15499019623
7158.25	7.15019655228
7158.5	7.14248466492
7158.75	7.14070510864
7159.0	7.13417720795
7159.25	7.13305711746
7159.5	7.13251543045
7159.75	7.13304662704
7160.0	7.13402891159
7161.09472656	7.1506152153
7162.20947266	7.19080877304
7163.34326172	7.25022935867
7164.49707031	7.33043384552
7165.67041016	7.42785072327
7166.86376953	7.54019784927
7168.07617188	7.6661605835
7169.30859375	7.79798984528
7170.56005859	7.94044399261
7171.83154297	8.08244228363
7173.12304688	8.23417282104
7174.43359375	8.38330936432
7175.76367188	8.48081207275
7177.11376953	8.55369663239
7178.48339844	8.61582946777
7179.87255859	8.66870117188
7181.28173828	8.7071428299
7182.70996094	8.72845649719
7184.15820313	8.73805618286
7185.62597656	8.73792457581
7187.11328125	8.73942661285
7188.62011719	8.73352432251
7190.14648438	8.72180366516
7191.69287109	8.70037937164
7193.25878906	8.67763137817
7194.84423828	8.65204429626
7196.44921875	8.63204574585
7198.07373047	8.61113071442
7199.71826172	8.59030151367
7201.38183594	8.56771183014
7203.06542969	8.54057407379
7204.76855469	8.51079559326
7206.49169922	8.4772195816
7208.23388672	8.44529819489
7209.99609375	8.41650009155
7211.77783203	8.39164161682
7213.57910156	8.3709526062
7215.39990234	8.35846328735
7217.24023438	8.35507774353
7219.10058594	8.35402393341
7220.98046875	8.36206245422
7222.87988281	8.37220954895
7224.79882813	8.38369083405
7226.73730469	8.39509773254
7228.69580078	8.40699958801
7230.67333984	8.41338157654
7232.67089844	8.41576862335
7234.68798828	8.41385555267
7236.72509766	8.41071510315
7238.78125	8.40721607208
7240.85742188	8.40780162811
7242.953125	8.41572093964
7245.06835938	8.42675590515
7247.203125	8.44802188873
7249.35742188	8.47323322296
7251.53173828	8.50274085999
7253.72558594	8.53481674194
7255.93896484	8.57417392731
7258.171875	8.61141395569
7260.42431641	8.64241790771
7262.69677734	8.68611717224
7264.98828125	8.72195339203
7267.29980469	8.75056648254
7269.63085938	8.77920341492
7271.98193359	8.79870033264
7274.35205078	8.81383800507
7276.7421875	8.82651138306
7279.15185547	8.83587837219
7281.58105469	8.83995056152
7284.02978516	8.83786869049
7286.49804688	8.82343769073
7288.98632813	8.81073188782
7291.49414063	8.78659725189
7294.02148438	8.76618766785
7296.56835938	8.74486637115
7299.13476563	8.73066902161
7301.72119141	8.71683597565
7304.32666016	8.71014213562
7306.95214844	8.70793056488
7309.59716797	8.71152877808
7312.26220703	8.7181224823
7314.94628906	8.72954463959
7317.65039063	8.74452018738
7320.37353516	8.76263904572
7323.11669922	8.78123283386
7325.87988281	8.80008792877
7328.66210938	8.81862735748
7331.46435547	8.83645248413
7334.28564453	8.85040664673
7337.12695313	8.86030864716
7339.98828125	8.8696308136
7342.86865234	8.87656593323
7345.76855469	8.87525749207
7348.68847656	8.87378025055
7351.62792969	8.87316226959
7354.58691406	8.8724155426
7357.56542969	8.87676525116
7360.56396484	8.88040065765
7363.58154297	8.88984775543
7366.61914063	8.90222644806
7369.67626953	8.91414642334
7372.75292969	8.926445961
7375.84960938	8.94266319275
7378.96533203	8.95674037933
7382.10107422	8.97229480743
7385.25634766	8.98988437653
7388.43115234	9.00675010681
7391.62597656	9.02361392975
7394.83984375	9.03983879089
7398.07373047	9.05554294586
7401.32714844	9.06742954254
7404.60009766	9.07955741882
7407.89257813	9.08580875397
7411.20458984	9.08951187134
7414.53662109	9.09275341034
7417.88818359	9.09098052979
7421.25927734	9.09228897095
7424.64990234	9.09109592438
7428.06005859	9.09231376648
7431.49023438	9.09401607513
7434.93994141	9.10062026978
7438.40917969	9.10843849182
7441.89794922	9.11567306519
7445.40625	9.13104248047
7448.93457031	9.14297103882
7452.48193359	9.15533256531
7456.04931641	9.17132091522
7459.63623047	9.18302726746
7463.24316406	9.19884586334
7466.86914063	9.21036338806
7470.51513672	9.22317790985
7474.18017578	9.23559951782
7477.86523438	9.25104808807
7481.5703125	9.26204967499
7485.29443359	9.27505016327
7489.03857422	9.2864484787
7492.80175781	9.29708862305
7496.58496094	9.30580043793
7500.38769531	9.31696605682
7504.21044922	9.32499790192
7508.05224609	9.33553218842
7511.9140625	9.34658718109
7515.79541016	9.35940551758
7519.69628906	9.3756313324
7523.61669922	9.38754367828
7527.55712891	9.40139770508
7531.51660156	9.41779232025
7535.49609375	9.4332151413
7539.49511719	9.4475069046
7543.51367188	9.45814704895
7547.55175781	9.469622612
7551.60986328	9.48306751251
7555.6875	9.4974822998
7559.78466797	9.50877475739
7563.90136719	9.52239131927
7568.03759766	9.5355463028
7572.19384766	9.55008125305
7576.36914063	9.56272983551
7580.56445313	9.57423019409
7584.77929688	9.58947563171
7589.01367188	9.60254001617
7593.26806641	9.61318016052
7597.54199219	9.62680625916
7601.83496094	9.63893699646
7606.14794922	9.65560817719
7610.48046875	9.66771125793
7614.83300781	9.68239212036
7619.20458984	9.69816398621
7623.59619141	9.71143054962
7628.00732422	9.72476673126
7632.43798828	9.73834133148
7636.88818359	9.75576782227
7641.35839844	9.77100658417
7645.84814453	9.78712368011
7650.35742188	9.80181598663
7654.88623047	9.81643390656
7659.43457031	9.83388614655
7664.00244141	9.84836292267
7668.59033203	9.86539173126
7673.19775391	9.88001346588
7677.82470703	9.89905929565
7682.47119141	9.91592025757
7687.13720703	9.93234634399
7691.82324219	9.94947814941
7696.52832031	9.96575927734
7701.25341797	9.98200798035
7705.99804688	9.99736118317
7710.76269531	10.0142002106
7715.54638672	10.0306539536
7720.35009766	10.0467720032
7725.17333984	10.0620746613
7730.01611328	10.077960968
7734.87841797	10.0957460403
7739.76025391	10.1103830338
7744.66210938	10.1280069351
7749.58349609	10.1435403824
7754.52441406	10.1601190567
7759.48486328	10.1792497635
7764.46484375	10.1964225769
7769.46484375	10.2130718231
7774.484375	10.231593132
7779.5234375	10.2491188049
7784.58203125	10.2669506073
7789.66015625	10.2843494415
7794.7578125	10.3017101288
7799.87548828	10.320233345
7805.01269531	10.3372745514
7810.16943359	10.3539390564
7815.34570313	10.373093605
7820.54199219	10.3908500671
7825.75732422	10.4072217941
7830.99267578	10.4257936478
7836.24755859	10.4441928864
7841.52197266	10.4618844986
7846.81591797	10.4798002243
7852.12988281	10.499712944
7857.46337891	10.5193405151
7862.81640625	10.5392370224
7868.18896484	10.5579605103
7873.58105469	10.5804567337
7878.99267578	10.6007375717
7884.42431641	10.6199989319
7889.87548828	10.6410503387
7895.34619141	10.6599493027
7900.83642578	10.6778049469
7906.34667969	10.6990852356
7911.87597656	10.7187232971
7917.42529297	10.7387342453
7922.99414063	10.758020401
7928.58251953	10.778960228
7934.19042969	10.801235199
7939.81835938	10.8204517365
7945.46582031	10.841668129
7951.1328125	10.8613462448
7956.81933594	10.8837528229
7962.52539063	10.9048595428
7968.25097656	10.924243927
7973.99658203	10.947221756
7979.76171875	10.9671726227
7985.54638672	10.989317894
7991.35058594	11.0085067749
7997.17480469	11.0310077667
8003.01806641	11.049700737
8008.88134766	11.0698347092
8014.76416016	11.0918998718
8020.66650391	11.1126966476
8026.58837891	11.1350326538
8032.53027344	11.1552906036
8038.49169922	11.1769628525
8044.47216797	11.1977090836
8050.47314453	11.2207946777
8056.49316406	11.2417917252
8062.53271484	11.2642316818
8068.59228516	11.28565979
8074.67138672	11.3068294525
8080.77001953	11.3307981491
8086.88818359	11.3519115448
8093.02587891	11.3732585907
8099.18359375	11.3959627151
8105.36083984	11.417178154
