# Averaged Data //Vboxsvr/xafsdata/Standards/biotite_001_fl.avg created by SamView
6880.0	0.182248011231
6890.23828125	0.183787479997
6900.47607422	0.183394402266
6910.71435547	0.183165132999
6920.95214844	0.184602722526
6931.19042969	0.184672221541
6941.42871094	0.185310229659
6951.66650391	0.185010239482
6961.90478516	0.185186490417
6972.14306641	0.186157330871
6982.38085938	0.187715366483
6992.61914063	0.188390389085
7002.85693359	0.188844829798
7013.09521484	0.190500363708
7023.33349609	0.191689804196
7033.57128906	0.192812025547
7043.80957031	0.194949612021
7054.04785156	0.197855696082
7064.28564453	0.200127378106
7074.52392578	0.206166505814
7084.76171875	0.21379929781
7095.0	0.228763267398
7095.25	0.230418354273
7095.5	0.230594739318
7095.75	0.231027051806
7096.0	0.230987355113
7096.25	0.231328323483
7096.5	0.232966348529
7096.75	0.233683139086
7097.0	0.234676867723
7097.25	0.234899923205
7097.5	0.235320031643
7097.75	0.236130326986
7098.0	0.236993163824
7098.25	0.237535312772
7098.5	0.237503513694
7098.75	0.239244773984
7099.0	0.238898783922
7099.25	0.241442650557
7099.5	0.241039901972
7099.75	0.241817444563
7100.0	0.243442878127
7100.25	0.244075492024
7100.5	0.244462952018
7100.75	0.246224269271
7101.0	0.246959343553
7101.25	0.247986838222
7101.5	0.248790204525
7101.75	0.250272661448
7102.0	0.251511275768
7102.25	0.251856118441
7102.5	0.253484338522
7102.75	0.253820806742
7103.0	0.255998373032
7103.25	0.255701720715
7103.5	0.258468657732
7103.75	0.258874773979
7104.0	0.261479794979
7104.25	0.262696325779
7104.5	0.264070540667
7104.75	0.265638530254
7105.0	0.267613261938
7105.25	0.26856175065
7105.5	0.271516263485
7105.75	0.272362828255
7106.0	0.275314390659
7106.25	0.278332680464
7106.5	0.279567301273
7106.75	0.282027244568
7107.0	0.285104691982
7107.25	0.287261962891
7107.5	0.290201812983
7107.75	0.292555004358
7108.0	0.296850860119
7108.25	0.300520181656
7108.5	0.305244833231
7108.75	0.310795158148
7109.0	0.317225843668
7109.25	0.325067877769
7109.5	0.334669262171
7109.75	0.34421852231
7110.0	0.356498926878
7110.25	0.367128610611
7110.5	0.379470556974
7110.75	0.388652861118
7111.0	0.397815287113
7111.25	0.404114454985
7111.5	0.409896880388
7111.75	0.41248524189
7112.0	0.417934119701
7112.25	0.421627044678
7112.5	0.427824139595
7112.75	0.431454718113
7113.0	0.439322769642
7113.25	0.44730630517
7113.5	0.455737262964
7113.75	0.467681378126
7114.0	0.479419529438
7114.25	0.494625002146
7114.5	0.513612985611
7114.75	0.535214424133
7115.0	0.560559272766
7115.25	0.59601277113
7115.5	0.636116683483
7115.75	0.685248315334
7116.0	0.74445027113
7116.25	0.822321772575
7116.5	0.904781758785
7116.75	1.00843214989
7117.0	1.12468457222
7117.25	1.2477710247
7117.5	1.37620580196
7117.75	1.52813565731
7118.0	1.69434952736
7118.25	1.90851318836
7118.5	2.10833072662
7118.75	2.38883805275
7119.0	2.65498280525
7119.25	2.96216106415
7119.5	3.24925589561
7119.75	3.58382749557
7120.0	3.85352611542
7120.25	4.13313531876
7120.5	4.34152889252
7120.75	4.54900217056
7121.0	4.70393514633
7121.25	4.85711812973
7121.5	4.97857141495
7121.75	5.13393259048
7122.0	5.28044605255
7122.25	5.47133588791
7122.5	5.65446138382
7122.75	5.88003969193
7123.0	6.13037347794
7123.25	6.37318706512
7123.5	6.59341478348
7123.75	6.81011629105
7124.0	6.978992939
7124.25	7.12021160126
7124.5	7.20515775681
7124.75	7.25938463211
7125.0	7.27979755402
7125.25	7.25651168823
7125.5	7.22349262238
7125.75	7.17952871323
7126.0	7.12469434738
7126.25	7.08203935623
7126.5	7.04808139801
7126.75	7.05507087708
7127.0	7.08652734756
7127.25	7.14674472809
7127.5	7.23463153839
7127.75	7.35348367691
7128.0	7.47885227203
7128.25	7.58009243011
7128.5	7.69181489944
7128.75	7.75269556046
7129.0	7.77620029449
7129.25	7.75023317337
7129.5	7.67188978195
7129.75	7.55479335785
7130.0	7.39742612839
7130.25	7.22971534729
7130.5	7.00655174255
7130.75	6.81397819519
7131.0	6.60378026962
7131.25	6.43212509155
7131.5	6.259724617
7131.75	6.10615062714
7132.0	5.96692323685
7132.25	5.86862897873
7132.5	5.76793861389
7132.75	5.68166685104
7133.0	5.59438800812
7133.25	5.53415727615
7133.5	5.47154760361
7133.75	5.41215991974
7134.0	5.35445690155
7134.25	5.30545806885
7134.5	5.2466711998
7134.75	5.195540905
7135.0	5.14515686035
7135.25	5.09494256973
7135.5	5.03795957565
7135.75	4.99607276917
7136.0	4.94868612289
7136.25	4.90749597549
7136.5	4.86799049377
7136.75	4.83644771576
7137.0	4.81014966965
7137.25	4.79484844208
7137.5	4.78509616852
7137.75	4.78095197678
7138.0	4.78718662262
7138.25	4.79053926468
7138.5	4.8142285347
7138.75	4.83718776703
7139.0	4.86391592026
7139.25	4.90137863159
7139.5	4.93464899063
7139.75	4.97853803635
7140.0	5.01647281647
7140.25	5.06205511093
7140.5	5.10022068024
7140.75	5.14114141464
7141.0	5.17737960815
7141.25	5.22015619278
7141.5	5.23481607437
7141.75	5.25586748123
7142.0	5.2670841217
7142.25	5.26812744141
7142.5	5.26254177094
7142.75	5.25424432755
7143.0	5.23757362366
7143.25	5.21909046173
7143.5	5.19726705551
7143.75	5.17109012604
7144.0	5.1477265358
7144.25	5.11717367172
7144.5	5.0841217041
7144.75	5.04700136185
7145.0	5.01543188095
7145.25	4.98134326935
7145.5	4.94866085052
7145.75	4.90375709534
7146.0	4.87120723724
7146.25	4.82496452332
7146.5	4.7920627594
7146.75	4.74454164505
7147.0	4.71028804779
7147.25	4.66440343857
7147.5	4.63039779663
7147.75	4.59016466141
7148.0	4.55635547638
7148.25	4.51496219635
7148.5	4.48611831665
7148.75	4.45290279388
7149.0	4.43327522278
7149.25	4.40934467316
7149.5	4.39739513397
7149.75	4.38332605362
7150.0	4.3741402626
7150.25	4.36710262299
7150.5	4.36635160446
7150.75	4.36082029343
7151.0	4.3666100502
7151.25	4.37354373932
7151.5	4.38375663757
7151.75	4.39438533783
7152.0	4.40701961517
7152.25	4.42081642151
7152.5	4.43855953217
7152.75	4.45970821381
7153.0	4.47155284882
7153.25	4.4902677536
7153.5	4.51218891144
7153.75	4.53058767319
7154.0	4.54757165909
7154.25	4.5759267807
7154.5	4.59047889709
7154.75	4.60994529724
7155.0	4.62964296341
7155.25	4.65068101883
7155.5	4.66994667053
7155.75	4.6881070137
7156.0	4.70746803284
7156.25	4.72763586044
7156.5	4.74652957916
7156.75	4.76453495026
7157.0	4.78742218018
7157.25	4.80242490768
7157.5	4.82375144958
7157.75	4.84185171127
7158.0	4.86049604416
7158.25	4.88642549515
7158.5	4.90988779068
7158.75	4.9284453392
7159.0	4.95396327972
7159.25	4.97548532486
7159.5	4.99458551407
7159.75	5.02077198029
7160.0	5.04782867432
7161.09472656	5.16100168228
7162.20947266	5.26295137405
7163.34326172	5.34656238556
7164.49707031	5.39943361282
7165.67041016	5.42864131927
7166.86376953	5.4463019371
7168.07617188	5.46615982056
7169.30859375	5.49505567551
7170.56005859	5.54687166214
7171.83154297	5.58761692047
7173.12304688	5.62212753296
7174.43359375	5.6533741951
7175.76367188	5.68208599091
7177.11376953	5.70295143127
7178.48339844	5.71274089813
7179.87255859	5.71140527725
7181.28173828	5.69701576233
7182.70996094	5.67985486984
7184.15820313	5.65660667419
7185.62597656	5.61745882034
7187.11328125	5.56755828857
7188.62011719	5.50517988205
7190.14648438	5.4408249855
7191.69287109	5.37346363068
7193.25878906	5.31267786026
7194.84423828	5.24939775467
7196.44921875	5.19448471069
7198.07373047	5.14881658554
7199.71826172	5.1169719696
7201.38183594	5.10738325119
7203.06542969	5.10778665543
7204.76855469	5.1223192215
7206.49169922	5.14610290527
7208.23388672	5.1747045517
7209.99609375	5.20593547821
7211.77783203	5.24190998077
7213.57910156	5.2870092392
7215.39990234	5.34324932098
7217.24023438	5.39509963989
7219.10058594	5.42649888992
7220.98046875	5.44329071045
7222.87988281	5.43580913544
7224.79882813	5.41075086594
7226.73730469	5.38011932373
7228.69580078	5.35032653809
7230.67333984	5.33167219162
7232.67089844	5.32170438766
7234.68798828	5.32514858246
7236.72509766	5.34096956253
7238.78125	5.37119436264
7240.85742188	5.41415119171
7242.953125	5.46580839157
7245.06835938	5.52122402191
7247.203125	5.56355428696
7249.35742188	5.593085289
7251.53173828	5.61026477814
7253.72558594	5.61552190781
7255.93896484	5.61476612091
7258.171875	5.61106824875
7260.42431641	5.5873131752
7262.69677734	5.5815987587
7264.98828125	5.56884622574
7267.29980469	5.55612039566
7269.63085938	5.54496383667
7271.98193359	5.5308265686
7274.35205078	5.5142865181
7276.7421875	5.50044870377
7279.15185547	5.46371841431
7281.58105469	5.45582389832
7284.02978516	5.43909025192
7286.49804688	5.42455625534
7288.98632813	5.41956710815
7291.49414063	5.41671657562
7294.02148438	5.42209386826
7296.56835938	5.43546867371
7299.13476563	5.44600057602
7301.72119141	5.46245098114
7304.32666016	5.47438955307
7306.95214844	5.48988389969
7309.59716797	5.50117254257
7312.26220703	5.51656293869
7314.94628906	5.53320837021
7317.65039063	5.54892539978
7320.37353516	5.56532764435
7323.11669922	5.58047389984
7325.87988281	5.59489393234
7328.66210938	5.60207748413
7331.46435547	5.60191392899
7334.28564453	5.59908342361
7337.12695313	5.59053277969
7339.98828125	5.58032608032
7342.86865234	5.57365751266
7345.76855469	5.57009220123
7348.68847656	5.57166337967
7351.62792969	5.57417964935
7354.58691406	5.57854223251
7357.56542969	5.58034706116
7360.56396484	5.58142709732
7363.58154297	5.58372354507
7366.61914063	5.58551311493
7369.67626953	5.59243917465
7372.75292969	5.59977054596
7375.84960938	5.60908508301
7378.96533203	5.61816978455
7382.10107422	5.62860441208
7385.25634766	5.63335800171
7388.43115234	5.6365146637
7391.62597656	5.63364315033
7394.83984375	5.63154506683
7398.07373047	5.62672281265
7401.32714844	5.62081718445
7404.60009766	5.61388492584
7407.89257813	5.61143493652
7411.20458984	5.61013364792
7414.53662109	5.6113910675
7417.88818359	5.61800050735
7421.25927734	5.62944841385
7424.64990234	5.63990831375
7428.06005859	5.64840126038
7431.49023438	5.65509176254
7434.93994141	5.66051673889
7438.40917969	5.67240285873
7441.89794922	5.67873191833
7445.40625	5.68758201599
7448.93457031	5.69899129868
7452.48193359	5.70669460297
7456.04931641	5.71460151672
7459.63623047	5.72050428391
7463.24316406	5.72851610184
7466.86914063	5.73433685303
7470.51513672	5.73849725723
7474.18017578	5.7411699295
7477.86523438	5.7411646843
7481.5703125	5.74006938934
7485.29443359	5.73897647858
7489.03857422	5.735871315
7492.80175781	5.73851966858
7496.58496094	5.73829507828
7500.38769531	5.74370574951
7504.21044922	5.74661302567
7508.05224609	5.7523765564
7511.9140625	5.75941562653
7515.79541016	5.76663684845
7519.69628906	5.77440786362
7523.61669922	5.77974271774
7527.55712891	5.78956508636
7531.51660156	5.79630804062
7535.49609375	5.80546808243
7539.49511719	5.81228494644
7543.51367188	5.81981182098
7547.55175781	5.82530164719
7551.60986328	5.8308801651
7555.6875	5.83764791489
7559.78466797	5.84318256378
7563.90136719	5.8474407196
7568.03759766	5.85264396667
7572.19384766	5.85594511032
7576.36914063	5.86186313629
7580.56445313	5.86675882339
7584.77929688	5.87326431274
7589.01367188	5.87989282608
7593.26806641	5.88765144348
7597.54199219	5.89266490936
7601.83496094	5.90130758286
7606.14794922	5.90813827515
7610.48046875	5.91493463516
7614.83300781	5.9206700325
7619.20458984	5.93080043793
7623.59619141	5.93756389618
7628.00732422	5.94317436218
7632.43798828	5.94972372055
7636.88818359	5.95829772949
7641.35839844	5.9636054039
7645.84814453	5.97106981277
7650.35742188	5.97548532486
7654.88623047	5.98332738876
7659.43457031	5.98828411102
7664.00244141	5.99293708801
7668.59033203	5.99944067001
7673.19775391	6.00452709198
7677.82470703	6.0125670433
7682.47119141	6.01863193512
7687.13720703	6.0243973732
7691.82324219	6.03215026855
7696.52832031	6.03968667984
7701.25341797	6.04501008987
7705.99804688	6.05480575562
7710.76269531	6.06248426437
7715.54638672	6.07177782059
7720.35009766	6.08147239685
7725.17333984	6.08960914612
7730.01611328	6.0965294838
7734.87841797	6.10485649109
7739.76025391	6.11562299728
7744.66210938	6.12253236771
7749.58349609	6.12833595276
7754.52441406	6.13775444031
7759.48486328	6.14555835724
7764.46484375	6.15346717834
7769.46484375	6.15958356857
7774.484375	6.16781282425
7779.5234375	6.17750358582
7784.58203125	6.18528699875
7789.66015625	6.19221735001
7794.7578125	6.20094251633
7799.87548828	6.20918989182
7805.01269531	6.21687746048
7810.16943359	6.22568416595
7815.34570313	6.23432636261
7820.54199219	6.24249267578
7825.75732422	6.25125408173
7830.99267578	6.26052474976
7836.24755859	6.27057647705
7841.52197266	6.27858972549
7846.81591797	6.28700399399
7852.12988281	6.29538726807
7857.46337891	6.30483675003
7862.81640625	6.31365585327
7868.18896484	6.32324361801
7873.58105469	6.33299350739
7878.99267578	6.34177732468
7884.42431641	6.34814214706
7889.87548828	6.35897064209
7895.34619141	6.36894655228
7900.83642578	6.37826395035
7906.34667969	6.38828372955
7911.87597656	6.39953756332
7917.42529297	6.41076087952
7922.99414063	6.41967439651
7928.58251953	6.43010091782
7934.19042969	6.44014787674
7939.81835938	6.45080947876
7945.46582031	6.46152591705
7951.1328125	6.47004985809
7956.81933594	6.48064661026
7962.52539063	6.49045181274
7968.25097656	6.50119543076
7973.99658203	6.51019477844
7979.76171875	6.52072668076
7985.54638672	6.53054618835
7991.35058594	6.53951454163
7997.17480469	6.54997301102
8003.01806641	6.56142997742
8008.88134766	6.57076406479
8014.76416016	6.58033800125
8020.66650391	6.58641242981
8026.58837891	6.60042095184
8032.53027344	6.61058235168
8038.49169922	6.62055397034
8044.47216797	6.63145446777
8050.47314453	6.64066648483
8056.49316406	6.65012550354
8062.53271484	6.66131448746
8068.59228516	6.6703710556
8074.67138672	6.68083286285
8080.77001953	6.69092655182
8086.88818359	6.70088481903
8093.02587891	6.71051120758
8099.18359375	6.72222852707
8105.36083984	6.7316532135
