# Averaged Data //Vboxsvr/xafsdata/Standards/FE_4_TB_SCHWERTMAN_001_shifted_fl created by SamView
6898.125	0.0111278826371
6908.36328125	0.010978365317
6918.60107422	0.0109898261726
6928.83935547	0.010967108421
6939.07714844	0.0108475610614
6949.31542969	0.0108115160838
6959.55371094	0.010830421932
6969.79150391	0.0107702175155
6980.02978516	0.0107354791835
6990.26806641	0.0107155805454
7000.50585938	0.0107266716659
7010.74414063	0.0107479132712
7020.98193359	0.0108917951584
7031.22021484	0.010969877243
7041.45849609	0.0110938362777
7051.69628906	0.0115726990625
7061.93457031	0.0118955643848
7072.17285156	0.0124444263056
7082.41064453	0.0133365420625
7092.64892578	0.0148699413985
7102.88671875	0.0180958900601
7113.125	0.0363562479615
7113.375	0.0400602370501
7113.625	0.0449830815196
7113.875	0.0506996326149
7114.125	0.0562267415226
7114.375	0.0606903098524
7114.625	0.0644006580114
7114.875	0.0677315592766
7115.125	0.071357652545
7115.375	0.0745051652193
7115.625	0.0760650038719
7115.875	0.0751032754779
7116.125	0.072014041245
7116.375	0.0681381076574
7116.625	0.0649771168828
7116.875	0.0628900080919
7117.125	0.0620113946497
7117.375	0.0619027130306
7117.625	0.0622885860503
7117.875	0.063008852303
7118.125	0.0639987140894
7118.375	0.0653282776475
7118.625	0.0666363239288
7118.875	0.06828648597
7119.125	0.0698688104749
7119.375	0.0718094557524
7119.625	0.0739170238376
7119.875	0.0761476382613
7120.125	0.0789711326361
7120.375	0.0822424590588
7120.625	0.0862559750676
7120.875	0.0909389257431
7121.125	0.0966190844774
7121.375	0.103280417621
7121.625	0.111340470612
7121.875	0.120616741478
7122.125	0.131617739797
7122.375	0.144061177969
7122.625	0.158215597272
7122.875	0.174812316895
7123.125	0.192814439535
7123.375	0.212996393442
7123.625	0.23436743021
7123.875	0.257281005383
7124.125	0.28082087636
7124.375	0.304349303246
7124.625	0.328529983759
7124.875	0.35202139616
7125.125	0.375238269567
7125.375	0.397427231073
7125.625	0.41905644536
7125.875	0.440718621016
7126.125	0.461471170187
7126.375	0.482019066811
7126.625	0.502849519253
7126.875	0.522959291935
7127.125	0.543658912182
7127.375	0.563982188702
7127.625	0.584186077118
7127.875	0.604957044125
7128.125	0.625157058239
7128.375	0.645459294319
7128.625	0.665886163712
7128.875	0.68575489521
7129.125	0.704591393471
7129.375	0.723739564419
7129.625	0.741171658039
7129.875	0.757912814617
7130.125	0.772719323635
7130.375	0.786852359772
7130.625	0.798639476299
7130.875	0.809239327908
7131.125	0.818326056004
7131.375	0.826032280922
7131.625	0.832404613495
7131.875	0.837969183922
7132.125	0.842034459114
7132.375	0.84543466568
7132.625	0.848351359367
7132.875	0.849935650826
7133.125	0.851137816906
7133.375	0.85176974535
7133.625	0.852296769619
7133.875	0.851633727551
7134.125	0.850946903229
7134.375	0.849353075027
7134.625	0.847551941872
7134.875	0.845334649086
7135.125	0.842563867569
7135.375	0.839578986168
7135.625	0.836436986923
7135.875	0.833195745945
7136.125	0.82979619503
7136.375	0.8262809515
7136.625	0.822846889496
7136.875	0.819670438766
7137.125	0.816260933876
7137.375	0.812927961349
7137.625	0.809902846813
7137.875	0.806889593601
7138.125	0.803967118263
7138.375	0.800976276398
7138.625	0.797871232033
7138.875	0.79463738203
7139.125	0.791745185852
7139.375	0.788246154785
7139.625	0.784719109535
7139.875	0.781487822533
7140.125	0.778088867664
7140.375	0.774402797222
7140.625	0.770841956139
7140.875	0.76742374897
7141.125	0.763754606247
7141.375	0.760351717472
7141.625	0.757011175156
7141.875	0.753860414028
7142.125	0.750638782978
7142.375	0.747541368008
7142.625	0.744726240635
7142.875	0.741828918457
7143.125	0.739058792591
7143.375	0.736773490906
7143.625	0.734485268593
7143.875	0.732236683369
7144.125	0.730071723461
7144.375	0.728019654751
7144.625	0.726188123226
7144.875	0.724203944206
7145.125	0.722389221191
7145.375	0.720764458179
7145.625	0.719003856182
7145.875	0.717394888401
7146.125	0.716026008129
7146.375	0.714426696301
7146.625	0.713042855263
7146.875	0.711609065533
7147.125	0.709833920002
7147.375	0.708473622799
7147.625	0.706600248814
7147.875	0.704986095428
7148.125	0.703162670135
7148.375	0.701108455658
7148.625	0.699342668056
7148.875	0.697238624096
7149.125	0.694829404354
7149.375	0.692599058151
7149.625	0.690087556839
7149.875	0.687357544899
7150.125	0.684876680374
7150.375	0.682083785534
7150.625	0.679622292519
7150.875	0.67636936903
7151.125	0.673720777035
7151.375	0.670371294022
7151.625	0.667942881584
7151.875	0.664890706539
7152.125	0.662168264389
7152.375	0.659162521362
7152.625	0.656226396561
7152.875	0.653733074665
7153.125	0.651042401791
7153.375	0.648346245289
7153.625	0.64580821991
7153.875	0.643118560314
7154.125	0.640789031982
7154.375	0.638421595097
7154.625	0.636222541332
7154.875	0.634198486805
7155.125	0.63163203001
7155.375	0.629749000072
7155.625	0.62774592638
7155.875	0.625711619854
7156.125	0.623615980148
7156.375	0.621909081936
7156.625	0.620289206505
7156.875	0.61859613657
7157.125	0.61682331562
7157.375	0.615235030651
7157.625	0.613805055618
7157.875	0.612380802631
7158.125	0.611141979694
7158.375	0.609946966171
7158.625	0.608669161797
7158.875	0.607707858086
7159.125	0.606738984585
7159.375	0.605886280537
7159.625	0.605180621147
7159.875	0.604709863663
7160.125	0.604003548622
7160.375	0.603655636311
7160.625	0.603388905525
7160.875	0.602974295616
7161.125	0.602854728699
7161.375	0.602941930294
7161.625	0.603066921234
7161.875	0.603255689144
7162.125	0.6034719944
7162.375	0.603764772415
7162.625	0.604139864445
7162.875	0.60491836071
7163.125	0.605131864548
7163.375	0.60604351759
7163.625	0.606883704662
7163.875	0.607706725597
7164.125	0.608834981918
7164.375	0.609728455544
7164.625	0.610827326775
7164.875	0.611928462982
7165.125	0.613108813763
7165.375	0.614533126354
7165.625	0.615811884403
7165.875	0.617245435715
7166.125	0.618576109409
7166.375	0.620315313339
7166.625	0.621796548367
7166.875	0.623308897018
7167.125	0.625003039837
7167.375	0.626794278622
7167.625	0.628469288349
7167.875	0.630165576935
7168.125	0.632170259953
7168.375	0.634093225002
7168.625	0.636059403419
7168.875	0.6377196908
7169.125	0.639809072018
7169.375	0.641612887383
7169.625	0.64349424839
7169.875	0.645572006702
7170.125	0.647582530975
7170.375	0.649658858776
7170.625	0.651404380798
7170.875	0.653539776802
7171.125	0.655537307262
7171.375	0.657382547855
7171.625	0.659305930138
7171.875	0.661405742168
7172.125	0.663232147694
7172.375	0.66515392065
7172.625	0.667043447495
7172.875	0.668880224228
7173.125	0.670723676682
7173.375	0.672793924809
7173.625	0.674778819084
7173.875	0.676381826401
7174.125	0.678438842297
7174.375	0.680769860744
7174.625	0.682471096516
7174.875	0.684609174728
7175.125	0.686487436295
7175.375	0.688625752926
7175.625	0.690472841263
7175.875	0.692733943462
7176.125	0.694675505161
7176.375	0.696652472019
7176.625	0.698227882385
7176.875	0.69972640276
7177.125	0.70085644722
7177.375	0.702088952065
7177.625	0.703200757504
7177.875	0.704049110413
7178.125	0.705065488815
7179.22119141	0.708649456501
7180.33691406	0.711643218994
7181.47265625	0.714182436466
7182.62792969	0.716284811497
7183.80273438	0.717501997948
7184.99755859	0.718152523041
7186.21142578	0.718151271343
7187.44580078	0.717981815338
7188.69921875	0.717842519283
7189.97265625	0.718118727207
7191.26513672	0.717687547207
7192.578125	0.71713835001
7193.91015625	0.716624498367
7195.26220703	0.715605199337
7196.63378906	0.714701890945
7198.02490234	0.713993668556
7199.43603516	0.713041603565
7200.86669922	0.712305903435
7202.31689453	0.711338818073
7203.78710938	0.710234701633
7205.27636719	0.708594322205
7206.78613281	0.706921339035
7208.31494141	0.704839289188
7209.86376953	0.703021407127
7211.43164063	0.700670301914
7213.02001953	0.698861777782
7214.62744141	0.696946084499
7216.25488281	0.695293605328
7217.90185547	0.694221317768
7219.56835938	0.693771064281
7221.25488281	0.693484961987
7222.9609375	0.693664193153
7224.68652344	0.694434940815
7226.43212891	0.695100426674
7228.19677734	0.695901870728
7229.98144531	0.696922302246
7231.78613281	0.697574198246
7233.60986328	0.698183715343
7235.45361328	0.698658227921
7237.31738281	0.699149668217
7239.20019531	0.699594020844
7241.10302734	0.700824141502
7243.02539063	0.70148473978
7244.96728516	0.703401684761
7246.92919922	0.705500841141
7248.91064453	0.707527458668
7250.91162109	0.709739267826
7252.93261719	0.71198540926
7254.97265625	0.714191377163
7257.03271484	0.715690135956
7259.11279297	0.718116283417
7261.21191406	0.72005957365
7263.33105469	0.721982836723
7265.47021484	0.723579108715
7267.62841797	0.725058853626
7269.80664063	0.726508557796
7272.00439453	0.728165984154
7274.22167969	0.729181587696
7276.45898438	0.730338454247
7278.71582031	0.731593728065
7280.9921875	0.732517063618
7283.28857422	0.733085513115
7285.60400391	0.733383357525
7287.93945313	0.732986152172
7290.29492188	0.732079207897
7292.66943359	0.731438755989
7295.06396484	0.730328083038
7297.47802734	0.72934871912
7299.91210938	0.728534042835
7302.36572266	0.727971255779
7304.83886719	0.727378666401
7307.33154297	0.727170586586
7309.84423828	0.727129459381
7312.37646484	0.727380990982
7314.92822266	0.727869570255
7317.49951172	0.728692829609
7320.09082031	0.729700684547
7322.70166016	0.730775594711
7325.33251953	0.732063770294
7327.98242188	0.733387410641
7330.65234375	0.735052883625
7333.34179688	0.736572384834
7336.05126953	0.73793143034
7338.78027344	0.739522337914
7341.52880859	0.740502536297
7344.296875	0.741103172302
7347.08496094	0.74153983593
7349.89257813	0.741794884205
7352.71972656	0.742040753365
7355.56640625	0.742390394211
7358.43310547	0.742861390114
7361.31933594	0.743571579456
7364.22558594	0.744458973408
7367.15087891	0.745309889317
7370.09619141	0.746361374855
7373.06103516	0.747158229351
7376.04589844	0.74807035923
7379.05029297	0.749056100845
7382.07421875	0.750159621239
7385.11767578	0.751407146454
7388.18115234	0.75258243084
7391.26416016	0.754130363464
7394.36669922	0.755584001541
7397.48876953	0.757117092609
7400.63085938	0.758580446243
7403.79248047	0.759933710098
7406.97363281	0.761002004147
7410.17480469	0.761804938316
7413.39550781	0.762405157089
7416.63574219	0.76265591383
7419.89599609	0.762796640396
7423.17529297	0.762826442719
7426.47509766	0.762906134129
7429.79394531	0.763192534447
7433.13232422	0.763683795929
7436.49072266	0.764304816723
7439.86914063	0.764938771725
7443.26660156	0.765780210495
7446.68408203	0.766601204872
7450.12109375	0.767671585083
7453.57763672	0.76877617836
7457.05419922	0.769987106323
7460.55029297	0.771139740944
7464.06591797	0.772602319717
7467.6015625	0.774001598358
7471.15625	0.775492548943
7474.73095703	0.776964247227
7478.32568359	0.778603553772
7481.93945313	0.780053079128
7485.57324219	0.781458437443
7489.2265625	0.782643735409
7492.89990234	0.783727943897
7496.59277344	0.784621357918
7500.30517578	0.785499215126
7504.03710938	0.78623175621
7507.7890625	0.787221848965
7511.56054688	0.788110733032
7515.3515625	0.789200603962
7519.16210938	0.790356218815
7522.99267578	0.791460931301
7526.84277344	0.792611658573
7530.71289063	0.793801724911
7534.60205078	0.79519122839
7538.51123047	0.79642367363
7542.43994141	0.797808527946
7546.38867188	0.799117565155
7550.35693359	0.800471484661
7554.34472656	0.801822960377
7558.35205078	0.803244948387
7562.37939453	0.804667294025
7566.42626953	0.805987775326
7570.49267578	0.807400226593
7574.57861328	0.808666110039
7578.68457031	0.809820592403
7582.81005859	0.811023533344
7586.95507813	0.812097012997
7591.12011719	0.813226282597
7595.3046875	0.814336299896
7599.50878906	0.815529763699
7603.73291016	0.816645205021
7607.97607422	0.817856192589
7612.23974609	0.819160342216
7616.52246094	0.820462584496
7620.82470703	0.821791708469
7625.14697266	0.823345780373
7629.48925781	0.824717223644
7633.85058594	0.826281011105
7638.23193359	0.827529609203
7642.6328125	0.829030632973
7647.05322266	0.830545067787
7651.49365234	0.830682456493
7655.95361328	0.833706974983
7660.43310547	0.835127055645
7664.93261719	0.836756169796
7669.45117188	0.838130533695
7673.98974609	0.839728653431
7678.54833984	0.84119361639
7683.12597656	0.842725634575
7687.72363281	0.844175517559
7692.34082031	0.845597803593
7696.97802734	0.8471326828
7701.63476563	0.848677694798
7706.31103516	0.850282132626
7711.00683594	0.851721584797
7715.72265625	0.853244543076
7720.45800781	0.854714512825
7725.21289063	0.856300711632
7729.98730469	0.857856750488
7734.78173828	0.859396159649
7739.59570313	0.861012399197
7744.4296875	0.862532258034
7749.28271484	0.864179730415
7754.15576172	0.865814745426
7759.04833984	0.867400944233
7763.9609375	0.86909610033
7768.89306641	0.870808601379
7773.84472656	0.87246465683
7778.81591797	0.874239325523
7783.80712891	0.87582296133
7788.81738281	0.877343058586
7793.84814453	0.878996610641
7798.89794922	0.880655229092
7803.96777344	0.882283210754
7809.05712891	0.884055793285
7814.16601563	0.885785996914
7819.29492188	0.887479066849
7824.44335938	0.889315664768
7829.61132813	0.891049981117
7834.79931641	0.892744839191
7840.00634766	0.894551873207
7845.23339844	0.896249890327
7850.48046875	0.897988855839
7855.74658203	0.899911403656
7861.03271484	0.901717245579
7866.33837891	0.903549969196
7871.6640625	0.905306994915
7877.00927734	0.907238125801
7882.37402344	0.909039437771
7887.75830078	0.910903453827
7893.16259766	0.912740588188
7898.58642578	0.914560198784
7904.02978516	0.916531324387
7909.49267578	0.918417692184
7914.97558594	0.920360147953
7920.47802734	0.922212779522
7926.00048828	0.924162626266
7931.54199219	0.926108777523
7937.10351563	0.928059279919
7942.68457031	0.930063962936
7948.28564453	0.932056248188
7953.90625	0.933848202229
7959.54638672	0.935759842396
7965.20605469	0.937747597694
7970.88574219	0.939741075039
7976.58447266	0.941723465919
7982.30371094	0.943730652332
7988.04199219	0.9456859231
7993.80029297	0.94766330719
7999.578125	0.949662208557
8005.37548828	0.951693296432
