# Averaged Data //Vboxsvr/xafsdata/Standards/FE_4_TB_MAGHEMITE_001_shifted_fl created by SamView
6898.125	0.0120850224048
6908.36328125	0.0119330734015
6918.60107422	0.0119089698419
6928.83935547	0.0118550658226
6939.07714844	0.0117267528549
6949.31542969	0.0115996999666
6959.55371094	0.0115918349475
6969.79150391	0.0115356072783
6980.02978516	0.0114658866078
6990.26806641	0.0114023275673
7000.50585938	0.0113584985957
7010.74414063	0.0113687207922
7020.98193359	0.0114487530664
7031.22021484	0.0115510141477
7041.45849609	0.0117089338601
7051.69628906	0.0122528178617
7061.93457031	0.0125911328942
7072.17285156	0.0132156992331
7082.41064453	0.0142907304689
7092.64892578	0.016164848581
7102.88671875	0.0202901624143
7113.125	0.0503353886306
7113.375	0.0573542751372
7113.625	0.0665785819292
7113.875	0.0782808512449
7114.125	0.0919360667467
7114.375	0.105430975556
7114.625	0.117362245917
7114.875	0.124586373568
7115.125	0.126319527626
7115.375	0.122833840549
7115.625	0.115790084004
7115.875	0.108224786818
7116.125	0.102167651057
7116.375	0.0983222350478
7116.625	0.0965538024902
7116.875	0.096435777843
7117.125	0.0974137857556
7117.375	0.0985560715199
7117.625	0.0996379703283
7117.875	0.100795596838
7118.125	0.101776227355
7118.375	0.10264211148
7118.625	0.1034835428
7118.875	0.104564212263
7119.125	0.105769172311
7119.375	0.10775026679
7119.625	0.110393621027
7119.875	0.11415579915
7120.125	0.11899420619
7120.375	0.125078365207
7120.625	0.132862538099
7120.875	0.142093986273
7121.125	0.153256624937
7121.375	0.16596122086
7121.625	0.181096464396
7121.875	0.197998777032
7122.125	0.21738819778
7122.375	0.238573521376
7122.625	0.261119067669
7122.875	0.285736501217
7123.125	0.310149848461
7123.375	0.334620803595
7123.625	0.35703265667
7123.875	0.378153473139
7124.125	0.396749198437
7124.375	0.413659662008
7124.625	0.428740948439
7124.875	0.442476451397
7125.125	0.455659687519
7125.375	0.468069344759
7125.625	0.480635374784
7125.875	0.494021266699
7126.125	0.508251488209
7126.375	0.523756325245
7126.625	0.540425956249
7126.875	0.55820119381
7127.125	0.576554775238
7127.375	0.594532847404
7127.625	0.611607015133
7127.875	0.628277778625
7128.125	0.642610251904
7128.375	0.655040025711
7128.625	0.665821969509
7128.875	0.674451768398
7129.125	0.681812465191
7129.375	0.688273906708
7129.625	0.693657934666
7129.875	0.699086844921
7130.125	0.704377770424
7130.375	0.710415065289
7130.625	0.716830313206
7130.875	0.724156320095
7131.125	0.732302725315
7131.375	0.740959107876
7131.625	0.749666929245
7131.875	0.758581638336
7132.125	0.767263233662
7132.375	0.775113582611
7132.625	0.782282173634
7132.875	0.788936555386
7133.125	0.793790400028
7133.375	0.797355413437
7133.625	0.799731433392
7133.875	0.800544142723
7134.125	0.799872815609
7134.375	0.797915875912
7134.625	0.794989585876
7134.875	0.791033148766
7135.125	0.786503016949
7135.375	0.781603574753
7135.625	0.776420295238
7135.875	0.77136516571
7136.125	0.766474664211
7136.375	0.76194447279
7136.625	0.757575392723
7136.875	0.753843963146
7137.125	0.750592410564
7137.375	0.747513115406
7137.625	0.745450973511
7137.875	0.743523478508
7138.125	0.741965293884
7138.375	0.740914583206
7138.625	0.73968487978
7138.875	0.738790631294
7139.125	0.737985789776
7139.375	0.73691213131
7139.625	0.736100554466
7139.875	0.734989464283
7140.125	0.733717918396
7140.375	0.732685685158
7140.625	0.731021821499
7140.875	0.729836642742
7141.125	0.728164553642
7141.375	0.726218760014
7141.625	0.724252820015
7141.875	0.722197115421
7142.125	0.719482898712
7142.375	0.717380404472
7142.625	0.714405357838
7142.875	0.711978554726
7143.125	0.70935189724
7143.375	0.706758797169
7143.625	0.70463681221
7143.875	0.702643156052
7144.125	0.700489103794
7144.375	0.699062645435
7144.625	0.69779086113
7144.875	0.696945905685
7145.125	0.696804106236
7145.375	0.696674883366
7145.625	0.6969845891
7145.875	0.69762724638
7146.125	0.698480129242
7146.375	0.699551224709
7146.625	0.700571596622
7146.875	0.701980948448
7147.125	0.703026533127
7147.375	0.704159498215
7147.625	0.70459240675
7147.875	0.705245673656
7148.125	0.705246090889
7148.375	0.705087065697
7148.625	0.704461634159
7148.875	0.703635573387
7149.125	0.702478587627
7149.375	0.700874507427
7149.625	0.698803544044
7149.875	0.696660995483
7150.125	0.694267332554
7150.375	0.692022979259
7150.625	0.688942313194
7150.875	0.686167478561
7151.125	0.683163940907
7151.375	0.680210888386
7151.625	0.677331328392
7151.875	0.674484193325
7152.125	0.671528697014
7152.375	0.668889760971
7152.625	0.666490972042
7152.875	0.664073109627
7153.125	0.6620683074
7153.375	0.659945428371
7153.625	0.658258140087
7153.875	0.656406164169
7154.125	0.654891848564
7154.375	0.653281509876
7154.625	0.652038395405
7154.875	0.650551259518
7155.125	0.649483561516
7155.375	0.648200631142
7155.625	0.646851718426
7155.875	0.645561814308
7156.125	0.64416539669
7156.375	0.643042862415
7156.625	0.641914367676
7156.875	0.6404722929
7157.125	0.639188170433
7157.375	0.637917459011
7157.625	0.636600911617
7157.875	0.635186195374
7158.125	0.63399708271
7158.375	0.632741868496
7158.625	0.631369292736
7158.875	0.629970908165
7159.125	0.628740429878
7159.375	0.627657830715
7159.625	0.62642031908
7159.875	0.625207662582
7160.125	0.623881399632
7160.375	0.622886002064
7160.625	0.621833086014
7160.875	0.621091961861
7161.125	0.620300829411
7161.375	0.619411230087
7161.625	0.619142591953
7161.875	0.618428111076
7162.125	0.618300616741
7162.375	0.61786043644
7162.625	0.61773109436
7162.875	0.617807269096
7163.125	0.617747068405
7163.375	0.61782258749
7163.625	0.617987275124
7163.875	0.618304729462
7164.125	0.618428945541
7164.375	0.618812322617
7164.625	0.619206547737
7164.875	0.619894444942
7165.125	0.620588421822
7165.375	0.62082362175
7165.625	0.62165158987
7165.875	0.622255384922
7166.125	0.622854948044
7166.375	0.623602330685
7166.625	0.624402284622
7166.875	0.6248960495
7167.125	0.625727415085
7167.375	0.626626849174
7167.625	0.627724587917
7167.875	0.628572583199
7168.125	0.629350185394
7168.375	0.630125820637
7168.625	0.631406247616
7168.875	0.632416188717
7169.125	0.633413553238
7169.375	0.634622216225
7169.625	0.635702729225
7169.875	0.637001097202
7170.125	0.638088464737
7170.375	0.639407634735
7170.625	0.640430808067
7170.875	0.64170897007
7171.125	0.643333673477
7171.375	0.64456897974
7171.625	0.645974934101
7171.875	0.647364079952
7172.125	0.648817718029
7172.375	0.650476276875
7172.625	0.652146816254
7172.875	0.653827011585
7173.125	0.655200779438
7173.375	0.657071828842
7173.625	0.658541858196
7173.875	0.660195350647
7174.125	0.661859333515
7174.375	0.663711488247
7174.625	0.665269255638
7174.875	0.667222082615
7175.125	0.668603658676
7175.375	0.670436263084
7175.625	0.671959400177
7175.875	0.673609256744
7176.125	0.674919068813
7176.375	0.676412403584
7176.625	0.677376627922
7176.875	0.678402483463
7177.125	0.679643511772
7177.375	0.680438637733
7177.625	0.68139898777
7177.875	0.682178139687
7178.125	0.682677209377
7179.22119141	0.686138749123
7180.33691406	0.689582407475
7181.47265625	0.693621635437
7182.62792969	0.697354674339
7183.80273438	0.700941443443
7184.99755859	0.703192055225
7186.21142578	0.70459908247
7187.44580078	0.705246508121
7188.69921875	0.705976486206
7189.97265625	0.706050097942
7191.26513672	0.706298708916
7192.578125	0.705844819546
7193.91015625	0.705665051937
7195.26220703	0.705042719841
7196.63378906	0.704029977322
7198.02490234	0.702709019184
7199.43603516	0.701514601707
7200.86669922	0.700277984142
7202.31689453	0.698491215706
7203.78710938	0.696907579899
7205.27636719	0.695060610771
7206.78613281	0.693433344364
7208.31494141	0.691686451435
7209.86376953	0.690719246864
7211.43164063	0.689753115177
7213.02001953	0.689904153347
7214.62744141	0.690728962421
7216.25488281	0.691653907299
7217.90185547	0.693112790585
7219.56835938	0.694464445114
7221.25488281	0.696419358253
7222.9609375	0.698146760464
7224.68652344	0.699803709984
7226.43212891	0.701564610004
7228.19677734	0.702489852905
7229.98144531	0.70309150219
7231.78613281	0.702895343304
7233.60986328	0.702043175697
7235.45361328	0.700930476189
7237.31738281	0.699443101883
7239.20019531	0.697577655315
7241.10302734	0.695652246475
7243.02539063	0.692956328392
7244.96728516	0.691828668118
7246.92919922	0.690505623817
7248.91064453	0.690522372723
7250.91162109	0.691639721394
7252.93261719	0.694016039371
7254.97265625	0.697412550449
7257.03271484	0.698387205601
7259.11279297	0.704086005688
7261.21191406	0.708153665066
7263.33105469	0.712540566921
7265.47021484	0.716433942318
7267.62841797	0.71942961216
7269.80664063	0.721747219563
7272.00439453	0.723872840405
7274.22167969	0.725652515888
7276.45898438	0.72678488493
7278.71582031	0.727713346481
7280.9921875	0.728241086006
7283.28857422	0.728206813335
7285.60400391	0.727646648884
7287.93945313	0.726982712746
7290.29492188	0.72582167387
7292.66943359	0.72444164753
7295.06396484	0.723045527935
7297.47802734	0.721847712994
7299.91210938	0.721065044403
7302.36572266	0.720655918121
7304.83886719	0.72059327364
7307.33154297	0.720719873905
7309.84423828	0.721355438232
7312.37646484	0.722196698189
7314.92822266	0.723233819008
7317.49951172	0.725024402142
7320.09082031	0.727072656155
7322.70166016	0.729414224625
7325.33251953	0.731836795807
7327.98242188	0.73403429985
7330.65234375	0.735496461391
7333.34179688	0.73663008213
7336.05126953	0.737304389477
7338.78027344	0.73732227087
7341.52880859	0.73733651638
7344.296875	0.737409591675
7347.08496094	0.737116158009
7349.89257813	0.736777663231
7352.71972656	0.736591041088
7355.56640625	0.736562669277
7358.43310547	0.737221419811
7361.31933594	0.737808644772
7364.22558594	0.73895740509
7367.15087891	0.740308105946
7370.09619141	0.74206918478
7373.06103516	0.743886590004
7376.04589844	0.745472192764
7379.05029297	0.746794581413
7382.07421875	0.748079478741
7385.11767578	0.749283432961
7388.18115234	0.750698804855
7391.26416016	0.752439141273
7394.36669922	0.75417304039
7397.48876953	0.75598102808
7400.63085938	0.75734359026
7403.79248047	0.75854319334
7406.97363281	0.759404659271
7410.17480469	0.75999724865
7413.39550781	0.76051825285
7416.63574219	0.7608897686
7419.89599609	0.761162757874
7423.17529297	0.76168847084
7426.47509766	0.762083053589
7429.79394531	0.762713491917
7433.13232422	0.763256490231
7436.49072266	0.764103591442
7439.86914063	0.76524835825
7443.26660156	0.766508340836
7446.68408203	0.76802355051
7450.12109375	0.769409179688
7453.57763672	0.771065950394
7457.05419922	0.772559940815
7460.55029297	0.77382850647
7464.06591797	0.774858593941
7467.6015625	0.775845885277
7471.15625	0.77680516243
7474.73095703	0.777765572071
7478.32568359	0.77881872654
7481.93945313	0.78011995554
7485.57324219	0.781359016895
7489.2265625	0.782549381256
7492.89990234	0.783829689026
7496.59277344	0.785221576691
7500.30517578	0.786534547806
7504.03710938	0.787875831127
7507.7890625	0.789243340492
7511.56054688	0.790448784828
7515.3515625	0.791668713093
7519.16210938	0.793023169041
7522.99267578	0.794496357441
7526.84277344	0.795903146267
7530.71289063	0.797683894634
7534.60205078	0.79933911562
7538.51123047	0.80091804266
7542.43994141	0.802320241928
7546.38867188	0.803751409054
7550.35693359	0.805083990097
7554.34472656	0.806167185307
7558.35205078	0.807266175747
7562.37939453	0.808395266533
7566.42626953	0.809737324715
7570.49267578	0.811187744141
7574.57861328	0.812734186649
7578.68457031	0.81417876482
7582.81005859	0.815596520901
7586.95507813	0.817000746727
7591.12011719	0.818370163441
7595.3046875	0.819813728333
7599.50878906	0.821218013763
7603.73291016	0.822911918163
7607.97607422	0.824290752411
7612.23974609	0.826015770435
7616.52246094	0.827472090721
7620.82470703	0.82909065485
7625.14697266	0.830599188805
7629.48925781	0.8320556283
7633.85058594	0.833604037762
7638.23193359	0.835072755814
7642.6328125	0.836356461048
7647.05322266	0.837814867496
7651.49365234	0.836168467999
7655.95361328	0.840980172157
7660.43310547	0.842608809471
7664.93261719	0.844158351421
7669.45117188	0.845778107643
7673.98974609	0.847377419472
7678.54833984	0.849036633968
7683.12597656	0.850841581821
7687.72363281	0.852599382401
7692.34082031	0.85434025526
7696.97802734	0.856140375137
7701.63476563	0.857922792435
7706.31103516	0.859643161297
7711.00683594	0.861355721951
7715.72265625	0.863129377365
7720.45800781	0.86478883028
7725.21289063	0.866515100002
7729.98730469	0.868180453777
7734.78173828	0.869960784912
7739.59570313	0.871484160423
7744.4296875	0.873255133629
7749.28271484	0.875065505505
7754.15576172	0.876765966415
7759.04833984	0.878514707088
7763.9609375	0.880257546902
7768.89306641	0.882121741772
7773.84472656	0.883884191513
7778.81591797	0.885744690895
7783.80712891	0.887670993805
7788.81738281	0.889544963837
7793.84814453	0.891528069973
7798.89794922	0.893462359905
7803.96777344	0.895304918289
7809.05712891	0.897173285484
7814.16601563	0.899048805237
7819.29492188	0.900969684124
7824.44335938	0.902764201164
7829.61132813	0.90472561121
7834.79931641	0.906550884247
7840.00634766	0.908613264561
7845.23339844	0.910504639149
7850.48046875	0.912426352501
7855.74658203	0.914432406425
7861.03271484	0.916303098202
7866.33837891	0.918268322945
7871.6640625	0.920273602009
7877.00927734	0.922309100628
7882.37402344	0.924349069595
7887.75830078	0.926393449306
7893.16259766	0.928481221199
7898.58642578	0.93042910099
7904.02978516	0.932555139065
7909.49267578	0.934570848942
7914.97558594	0.93676006794
7920.47802734	0.938893198967
7926.00048828	0.940977454185
7931.54199219	0.943127036095
7937.10351563	0.945185899734
7942.68457031	0.947314321995
7948.28564453	0.949478268623
7953.90625	0.951642096043
7959.54638672	0.953737676144
7965.20605469	0.956015169621
7970.88574219	0.958151459694
7976.58447266	0.960474967957
7982.30371094	0.962616860867
7988.04199219	0.96485376358
7993.80029297	0.967159748077
7999.578125	0.96928447485
8005.37548828	0.971517622471
