# Averaged Data C:/Users/Benjamin_C_Bostick/Desktop/23FE_STD_JAROSITE_001_fl.avg created by SamView
7050.0	0.283737748861
7060.0	0.287257999182
7070.0	0.291229009628
7080.0	0.297037869692
7090.0	0.302292615175
7100.0	0.313949793577
7100.35107422	0.314350783825
7100.70166016	0.31554761529
7101.05273438	0.316274404526
7101.40332031	0.316259920597
7101.75439453	0.317192345858
7102.10546875	0.318834066391
7102.45605469	0.318233639002
7102.80712891	0.319692403078
7103.15771484	0.320059597492
7103.50878906	0.321511030197
7103.85986328	0.322037011385
7104.21044922	0.323820531368
7104.56152344	0.324453860521
7104.91210938	0.32538330555
7105.26318359	0.326685965061
7105.61425781	0.327443212271
7105.96484375	0.327412217855
7106.31591797	0.329832971096
7106.66650391	0.330542057753
7107.01757813	0.332671284676
7107.36865234	0.333843678236
7107.71923828	0.335216313601
7108.0703125	0.336450278759
7108.42089844	0.338684141636
7108.77197266	0.340668410063
7109.12304688	0.343566298485
7109.47363281	0.346060574055
7109.82470703	0.348880469799
7110.17529297	0.353887975216
7110.52636719	0.358219146729
7110.87695313	0.36586779356
7111.22802734	0.375681459904
7111.57910156	0.390735268593
7111.9296875	0.406509280205
7112.28076172	0.417958557606
7112.63134766	0.423963338137
7112.98242188	0.423079699278
7113.33349609	0.424407303333
7113.68408203	0.426022648811
7114.03515625	0.424080759287
7114.38574219	0.420774012804
7114.73681641	0.415754109621
7115.08789063	0.413701802492
7115.43847656	0.415266364813
7115.78955078	0.419964641333
7116.14013672	0.428878486156
7116.49121094	0.43917581439
7116.84228516	0.449672162533
7117.19287109	0.460219323635
7117.54394531	0.473498344421
7117.89453125	0.487451672554
7118.24560547	0.501653850079
7118.59667969	0.517892062664
7118.94726563	0.536409139633
7119.29833984	0.558239161968
7119.64892578	0.586342990398
7120.0	0.623112261295
7120.35107422	0.671881377697
7120.70166016	0.728803217411
7121.05273438	0.794542968273
7121.40332031	0.881252288818
7121.75439453	0.975401520729
7122.10546875	1.07123410702
7122.45605469	1.18175029755
7122.80712891	1.28817081451
7123.15771484	1.38411808014
7123.50878906	1.47898030281
7123.85986328	1.57684540749
7124.21044922	1.66979444027
7124.56152344	1.76546978951
7124.91210938	1.86947250366
7125.26318359	1.98436880112
7125.61425781	2.09997320175
7125.96484375	2.21362137794
7126.31591797	2.35017704964
7126.66650391	2.48922204971
7127.01757813	2.62493538857
7127.36865234	2.76859664917
7127.71923828	2.90436434746
7128.0703125	3.02165484428
7128.42089844	3.11986351013
7128.77197266	3.19952249527
7129.12304688	3.24919986725
7129.47363281	3.27827072144
7129.82470703	3.29007363319
7130.17529297	3.29037308693
7130.52636719	3.28311753273
7130.87695313	3.27274513245
7131.22802734	3.26066207886
7131.57910156	3.2467982769
7131.9296875	3.2312541008
7132.28076172	3.22013401985
7132.63134766	3.20706176758
7132.98242188	3.19842147827
7133.33349609	3.18898272514
7133.68408203	3.1821680069
7134.03515625	3.17527151108
7134.38574219	3.16888785362
7134.73681641	3.16456961632
7135.08789063	3.15852594376
7135.43847656	3.15625452995
7135.78955078	3.15310311317
7136.14013672	3.14789223671
7136.49121094	3.14079809189
7136.84228516	3.13299036026
7137.19287109	3.12353849411
7137.54394531	3.10978722572
7137.89453125	3.09480857849
7138.24560547	3.0752761364
7138.59667969	3.05691337585
7138.94726563	3.03534674644
7139.29833984	3.01440358162
7139.64892578	2.99563908577
7140.0	2.97329211235
7140.60595703	2.93645644188
7141.21191406	2.89610338211
7141.81835938	2.85621523857
7142.42431641	2.81038618088
7143.03027344	2.77743649483
7143.63623047	2.74586343765
7144.2421875	2.71746206284
7144.84863281	2.69565653801
7145.45458984	2.67451167107
7146.06054688	2.65799856186
7146.66650391	2.64098930359
7147.27294922	2.62333893776
7147.87890625	2.60502314568
7148.48486328	2.58108282089
7149.09082031	2.55844044685
7149.69677734	2.53131175041
7150.30322266	2.50570058823
7150.90917969	2.47723698616
7151.51513672	2.45097923279
7152.12109375	2.42428851128
7152.72705078	2.39426708221
7153.33349609	2.36396288872
7153.93945313	2.33672404289
7154.54541016	2.31168460846
7155.15136719	2.28592610359
7155.7578125	2.26397895813
7156.36376953	2.24747657776
7156.96972656	2.2321844101
7157.57568359	2.22282886505
7158.18164063	2.21349740028
7158.78808594	2.20961022377
7159.39404297	2.20938420296
7160.0	2.21069717407
7160.60595703	2.21394896507
7161.21191406	2.22126531601
7161.81835938	2.22897458076
7162.42431641	2.23943185806
7163.03027344	2.25088977814
7163.63623047	2.26627254486
7164.2421875	2.28133845329
7164.84863281	2.29745697975
7165.45458984	2.31658196449
7166.06054688	2.33948850632
7166.66650391	2.35792994499
7167.27294922	2.37771058083
7167.87890625	2.39658522606
7168.48486328	2.41703009605
7169.09082031	2.43721532822
7169.69677734	2.45916223526
7170.30322266	2.47837710381
7170.90917969	2.50059604645
7171.51513672	2.52365708351
7172.12109375	2.54678916931
7172.72705078	2.57309341431
7173.33349609	2.59758591652
7173.93945313	2.62667751312
7174.54541016	2.65206503868
7175.15136719	2.67344903946
7175.7578125	2.6915371418
7176.36376953	2.70446228981
7176.96972656	2.71631407738
7177.57568359	2.72638773918
7178.18164063	2.73504638672
7178.78808594	2.74031496048
7179.39404297	2.74318981171
7180.0	2.74632096291
7188.0	2.6901576519
7196.0	2.74198675156
7204.0	2.68032407761
7212.0	2.64324808121
7220.0	2.63631510735
7228.0	2.61937260628
7236.0	2.61381053925
7244.0	2.6592259407
7252.0	2.71709179878
7260.0	2.77935552597
7268.0	2.80612611771
7276.0	2.79367399216
7284.0	2.78649806976
7292.0	2.78791975975
7300.0	2.78375411034
