# Averaged Data //Vboxsvr/xafsdata/Standards/2_line_ferrihydrite_002_fl.avg created by SamView
6880.0	0.416303992271
6890.23828125	0.417534589767
6900.47607422	0.422108799219
6910.71435547	0.427624970675
6920.95214844	0.431578278542
6931.19042969	0.435393720865
6941.42871094	0.440611094236
6951.66650391	0.443906068802
6961.90478516	0.448568254709
6972.14306641	0.452719032764
6982.38085938	0.458815276623
6992.61914063	0.467169255018
7002.85693359	0.47257950902
7013.09521484	0.481331944466
7023.33349609	0.489605903625
7033.57128906	0.499226152897
7043.80957031	0.510296285152
7054.04785156	0.524694800377
7064.28564453	0.543978333473
7074.52392578	0.569857478142
7084.76171875	0.607035636902
7095.0	0.673165917397
7095.25	0.675024449825
7095.5	0.676069319248
7095.75	0.678070962429
7096.0	0.680259644985
7096.25	0.683544099331
7096.5	0.686618983746
7096.75	0.688629090786
7097.0	0.690840780735
7097.25	0.694460749626
7097.5	0.695655584335
7097.75	0.69861638546
7098.0	0.701514184475
7098.25	0.705023467541
7098.5	0.70576518774
7098.75	0.710310101509
7099.0	0.713231384754
7099.25	0.717124462128
7099.5	0.720439016819
7099.75	0.724157094955
7100.0	0.728901684284
7100.25	0.731852889061
7100.5	0.732625722885
7100.75	0.737721920013
7101.0	0.740616500378
7101.25	0.745204865932
7101.5	0.751131117344
7101.75	0.755066096783
7102.0	0.757368505001
7102.25	0.76327252388
7102.5	0.766991972923
7102.75	0.771313428879
7103.0	0.778219521046
7103.25	0.782268762589
7103.5	0.787359416485
7103.75	0.792750418186
7104.0	0.797041833401
7104.25	0.803199350834
7104.5	0.811370670795
7104.75	0.813858807087
7105.0	0.821016430855
7105.25	0.828088819981
7105.5	0.834432303905
7105.75	0.840096890926
7106.0	0.848916828632
7106.25	0.858766257763
7106.5	0.866653740406
7106.75	0.876295089722
7107.0	0.887122869492
7107.25	0.898700475693
7107.5	0.908369719982
7107.75	0.922546803951
7108.0	0.935447394848
7108.25	0.954112410545
7108.5	0.968808174133
7108.75	0.987421631813
7109.0	1.00934064388
7109.25	1.03470289707
7109.5	1.06040501595
7109.75	1.09691405296
7110.0	1.1330524683
7110.25	1.18669998646
7110.5	1.23810267448
7110.75	1.3159096241
7111.0	1.40071392059
7111.25	1.51717829704
7111.5	1.6332821846
7111.75	1.78037333488
7112.0	1.92865920067
7112.25	2.07626199722
7112.5	2.20041871071
7112.75	2.32144546509
7113.0	2.39699912071
7113.25	2.44097971916
7113.5	2.45523619652
7113.75	2.43878173828
7114.0	2.40688276291
7114.25	2.36465072632
7114.5	2.33124542236
7114.75	2.30337429047
7115.0	2.29181861877
7115.25	2.29348874092
7115.5	2.31276059151
7115.75	2.33729910851
7116.0	2.37699890137
7116.25	2.41434192657
7116.5	2.46522402763
7116.75	2.51568293571
7117.0	2.58721446991
7117.25	2.64562439919
7117.5	2.73334360123
7117.75	2.82216238976
7118.0	2.93751454353
7118.25	3.05780529976
7118.5	3.22069954872
7118.75	3.3935546875
7119.0	3.61900639534
7119.25	3.83551120758
7119.5	4.13597393036
7119.75	4.4432477951
7120.0	4.82026815414
7120.25	5.19329738617
7120.5	5.6589679718
7120.75	6.124314785
7121.0	6.67110681534
7121.25	7.1799249649
7121.5	7.79549837112
7121.75	8.38152694702
7122.0	8.99788951874
7122.25	9.54327964783
7122.5	10.1791000366
7122.75	10.742146492
7123.0	11.3240709305
7123.25	11.844250679
7123.5	12.4260196686
7123.75	12.9682197571
7124.0	13.5018520355
7124.25	14.0443134308
7124.5	14.6170549393
7124.75	15.1980686188
7125.0	15.7629060745
7125.25	16.3324203491
7125.5	16.9378662109
7125.75	17.5499477386
7126.0	18.1128482819
7126.25	18.6838150024
7126.5	19.2579116821
7126.75	19.8219795227
7127.0	20.3010253906
7127.25	20.8019618988
7127.5	21.2820053101
7127.75	21.7265586853
7128.0	22.1033554077
7128.25	22.4816074371
7128.5	22.8213748932
7128.75	23.1579933167
7129.0	23.4018211365
7129.25	23.7019996643
7129.5	23.9257164001
7129.75	24.147819519
7130.0	24.3170948029
7130.25	24.4974880219
7130.5	24.6292324066
7130.75	24.7461662292
7131.0	24.8427371979
7131.25	24.912322998
7131.5	24.9769515991
7131.75	25.0028629303
7132.0	25.0014019012
7132.25	24.9928512573
7132.5	24.9560852051
7132.75	24.9061908722
7133.0	24.8424377441
7133.25	24.7800064087
7133.5	24.6919403076
7133.75	24.6071605682
7134.0	24.5402030945
7134.25	24.4518623352
7134.5	24.3720989227
7134.75	24.2827548981
7135.0	24.1960792542
7135.25	24.1214504242
7135.5	24.0220565796
7135.75	23.9391021729
7136.0	23.8420162201
7136.25	23.764169693
7136.5	23.6771678925
7136.75	23.6027832031
7137.0	23.5107746124
7137.25	23.4288520813
7137.5	23.3324050903
7137.75	23.251701355
7138.0	23.1531200409
7138.25	23.0417060852
7138.5	22.9369163513
7138.75	22.8475456238
7139.0	22.7550811768
7139.25	22.6609687805
7139.5	22.5536079407
7139.75	22.4627304077
7140.0	22.3545589447
7140.25	22.2572231293
7140.5	22.1469745636
7140.75	22.0579051971
7141.0	21.9707794189
7141.25	21.8984508514
7141.5	21.8065261841
7141.75	21.7413635254
7142.0	21.6627941132
7142.25	21.6066169739
7142.5	21.5379962921
7142.75	21.4808692932
7143.0	21.4310722351
7143.25	21.3888187408
7143.5	21.3509120941
7143.75	21.2989768982
7144.0	21.264591217
7144.25	21.2402877808
7144.5	21.2151050568
7144.75	21.1743164063
7145.0	21.1687507629
7145.25	21.1522941589
7145.5	21.1120166779
7145.75	21.086309433
7146.0	21.0497970581
7146.25	21.0176944733
7146.5	20.9698390961
7146.75	20.9389686584
7147.0	20.8812179565
7147.25	20.8248672485
7147.5	20.7627410889
7147.75	20.6976947784
7148.0	20.6189079285
7148.25	20.5315990448
7148.5	20.4548454285
7148.75	20.3703212738
7149.0	20.2884235382
7149.25	20.207244873
7149.5	20.1264839172
7149.75	20.0337314606
7150.0	19.9420986176
7150.25	19.8509712219
7150.5	19.7582836151
7150.75	19.6734161377
7151.0	19.5807514191
7151.25	19.4951248169
7151.5	19.4070625305
7151.75	19.3417549133
7152.0	19.2539958954
7152.25	19.1643066406
7152.5	19.094045639
7152.75	19.0356235504
7153.0	18.9836463928
7153.25	18.9083175659
7153.5	18.8423194885
7153.75	18.781627655
7154.0	18.728181839
7154.25	18.6775588989
7154.5	18.6389369965
7154.75	18.5732135773
7155.0	18.5233802795
7155.25	18.4735336304
7155.5	18.433921814
7155.75	18.3921222687
7156.0	18.3485355377
7156.25	18.3112659454
7156.5	18.2778282166
7156.75	18.2392044067
7157.0	18.2114543915
7157.25	18.1864376068
7157.5	18.1422595978
7157.75	18.1244907379
7158.0	18.1076812744
7158.25	18.0754680634
7158.5	18.0683574677
7158.75	18.0329360962
7159.0	18.0180149078
7159.25	18.0170192719
7159.5	17.9966411591
7159.75	17.9881343842
7160.0	17.986869812
7161.09472656	18.0026302338
7162.20947266	18.0691719055
7163.34326172	18.191532135
7164.49707031	18.3467693329
7165.67041016	18.5446510315
7166.86376953	18.7739486694
7168.07617188	19.0315990448
7169.30859375	19.3165607452
7170.56005859	19.6000289917
7171.83154297	19.9198436737
7173.12304688	20.235168457
7174.43359375	20.5374851227
7175.76367188	20.7714805603
7177.11376953	20.9380989075
7178.48339844	21.0598831177
7179.87255859	21.1707305908
7181.28173828	21.2561206818
7182.70996094	21.3175468445
7184.15820313	21.3483123779
7185.62597656	21.3514060974
7187.11328125	21.3533744812
7188.62011719	21.3651046753
7190.14648438	21.3611164093
7191.69287109	21.3332042694
7193.25878906	21.3212375641
7194.84423828	21.2925205231
7196.44921875	21.2605838776
7198.07373047	21.2367286682
7199.71826172	21.1880722046
7201.38183594	21.1646099091
7203.06542969	21.1186332703
7204.76855469	21.0693721771
7206.49169922	21.0079936981
7208.23388672	20.9467029572
7209.99609375	20.8934383392
7211.77783203	20.8402004242
7213.57910156	20.804605484
7215.39990234	20.7740707397
7217.24023438	20.7673149109
7219.10058594	20.7698459625
7220.98046875	20.7853088379
7222.87988281	20.7886486053
7224.79882813	20.8021221161
7226.73730469	20.8239917755
7228.69580078	20.8297653198
7230.67333984	20.8327407837
7232.67089844	20.8479366302
7234.68798828	20.8477020264
7236.72509766	20.8481388092
7238.78125	20.860704422
7240.85742188	20.8679180145
7242.953125	20.8901100159
7245.06835938	20.9183654785
7247.203125	20.9654102325
7249.35742188	21.0336685181
7251.53173828	21.1330318451
7253.72558594	21.1844577789
7255.93896484	21.2897720337
7258.171875	21.4040355682
7260.42431641	21.5011348724
7262.69677734	21.4947052002
7264.98828125	21.6491374969
7267.29980469	21.7305488586
7269.63085938	21.7890052795
7271.98193359	21.8314590454
7274.35205078	21.8590545654
7276.7421875	21.8796863556
7279.15185547	21.8970623016
7281.58105469	21.8967609406
7284.02978516	21.8789768219
7286.49804688	21.8641681671
7288.98632813	21.8444881439
7291.49414063	21.8100852966
7294.02148438	21.7853546143
7296.56835938	21.7466926575
7299.13476563	21.7346458435
7301.72119141	21.7295818329
7304.32666016	21.7281131744
7306.95214844	21.7337112427
7309.59716797	21.7555103302
7312.26220703	21.7807540894
7314.94628906	21.8155536652
7317.65039063	21.8495082855
7320.37353516	21.8891601563
7323.11669922	21.9285945892
7325.87988281	21.9626636505
7328.66210938	22.0016555786
7331.46435547	22.0252723694
7334.28564453	22.0471496582
7337.12695313	22.0695953369
7339.98828125	22.0886859894
7342.86865234	22.0972652435
7345.76855469	22.1072502136
7348.68847656	22.1274585724
7351.62792969	22.1371021271
7354.58691406	22.1589717865
7357.56542969	22.1805210114
7360.56396484	22.1989631653
7363.58154297	22.2348175049
7366.61914063	22.2823162079
7369.67626953	22.3240356445
7372.75292969	22.3750896454
7375.84960938	22.40782547
7378.96533203	22.4450187683
7382.10107422	22.4846611023
7385.25634766	22.5243930817
7388.43115234	22.5636043549
7391.62597656	22.5967521667
7394.83984375	22.6338043213
7398.07373047	22.6759052277
7401.32714844	22.7009086609
7404.60009766	22.7251186371
7407.89257813	22.7566452026
7411.20458984	22.7670917511
7414.53662109	22.784658432
7417.88818359	22.8052845001
7421.25927734	22.8026599884
7424.64990234	22.8142166138
7428.06005859	22.8301315308
7431.49023438	22.8405990601
7434.93994141	22.877407074
7438.40917969	22.9129619598
7441.89794922	22.930721283
7445.40625	22.963508606
7448.93457031	23.0016918182
7452.48193359	23.0411720276
7456.04931641	23.0821590424
7459.63623047	23.1225147247
7463.24316406	23.1561355591
7466.86914063	23.1903152466
7470.51513672	23.2351551056
7474.18017578	23.2729187012
7477.86523438	23.3003177643
7481.5703125	23.3392028809
7485.29443359	23.368806839
7489.03857422	23.4057579041
7492.80175781	23.4403038025
7496.58496094	23.4778499603
7500.38769531	23.5136680603
7504.21044922	23.5494384766
7508.05224609	23.5847911835
7511.9140625	23.6086063385
7515.79541016	23.6415576935
7519.69628906	23.6833400726
7523.61669922	23.72306633
7527.55712891	23.774307251
7531.51660156	23.8276290894
7535.49609375	23.8656330109
7539.49511719	23.9102134705
7543.51367188	23.9447650909
7547.55175781	23.9795055389
7551.60986328	24.0176410675
7555.6875	24.0486183167
7559.78466797	24.0872306824
7563.90136719	24.1247901917
7568.03759766	24.1642341614
7572.19384766	24.2004871368
7576.36914063	24.2403717041
7580.56445313	24.2815055847
7584.77929688	24.3235912323
7589.01367188	24.3668212891
7593.26806641	24.4055404663
7597.54199219	24.4521961212
7601.83496094	24.4890193939
7606.14794922	24.5427303314
7610.48046875	24.5878448486
7614.83300781	24.6357841492
7619.20458984	24.6821613312
7623.59619141	24.7592163086
7628.00732422	24.7199230194
7632.43798828	24.8397808075
7636.88818359	24.850976944
7641.35839844	24.8928623199
7645.84814453	24.9317455292
7650.35742188	24.9866428375
7654.88623047	25.0366401672
7659.43457031	25.082983017
7664.00244141	25.1368694305
7668.59033203	25.1766242981
7673.19775391	25.234003067
7677.82470703	25.2810497284
7682.47119141	25.3234462738
7687.13720703	25.3687896729
7691.82324219	25.42461586
7696.52832031	25.4791870117
7701.25341797	25.5314903259
7705.99804688	25.5793704987
7710.76269531	25.6187152863
7715.54638672	25.6665687561
7720.35009766	25.7277965546
7725.17333984	25.7765388489
7730.01611328	25.8360061646
7734.87841797	25.8778915405
7739.76025391	25.9300441742
7744.66210938	25.9876689911
7749.58349609	26.0214195251
7754.52441406	26.0832061768
7759.48486328	26.1356430054
7764.46484375	26.1891975403
7769.46484375	26.2476272583
7774.484375	26.2952747345
7779.5234375	26.3496379852
7784.58203125	26.4014396667
7789.66015625	26.4585018158
7794.7578125	26.5118160248
7799.87548828	26.5787963867
7805.01269531	26.6363735199
7810.16943359	26.6805305481
7815.34570313	26.7402153015
7820.54199219	26.7952308655
7825.75732422	26.8520469666
7830.99267578	26.908241272
7836.24755859	26.9708747864
7841.52197266	27.0242214203
7846.81591797	27.0842819214
7852.12988281	27.1438827515
7857.46337891	27.2156295776
7862.81640625	27.2648773193
7868.18896484	27.3237514496
7873.58105469	27.3710613251
7878.99267578	27.4314002991
7884.42431641	27.5080299377
7889.87548828	27.5623645782
7895.34619141	27.6312351227
7900.83642578	27.6836585999
7906.34667969	27.7421627045
7911.87597656	27.8096408844
7917.42529297	27.8828964233
7922.99414063	27.9438400269
7928.58251953	27.9981193542
7934.19042969	28.0651454926
7939.81835938	28.1215362549
7945.46582031	28.1901473999
7951.1328125	28.2569942474
7956.81933594	28.3220806122
7962.52539063	28.3814544678
7968.25097656	28.4431419373
7973.99658203	28.5351314545
7979.76171875	28.585269928
7985.54638672	28.644367218
7991.35058594	28.7036457062
7997.17480469	28.7703456879
8003.01806641	28.8466453552
8008.88134766	28.9092216492
8014.76416016	28.9786319733
8020.66650391	29.0358963013
8026.58837891	29.1046161652
8032.53027344	29.1665649414
8038.49169922	29.25248909
8044.47216797	29.3255901337
8050.47314453	29.3981437683
8056.49316406	29.4511699677
8062.53271484	29.5165958405
8068.59228516	29.5921401978
8074.67138672	29.648443222
8080.77001953	29.7230396271
8086.88818359	29.7991523743
8093.02587891	29.8620567322
8099.18359375	29.936542511
8105.36083984	30.0092926025
