# Averaged Data //Vboxsvr/xafsdata/Standards/ferrosmec_001_fl.avg created by SamView
6880.0	0.0330565422773
6890.23828125	0.0329329818487
6900.47607422	0.0329476781189
6910.71435547	0.0331249460578
6920.95214844	0.0329766646028
6931.19042969	0.0333628617227
6941.42871094	0.0333654992282
6951.66650391	0.033555585891
6961.90478516	0.0335722304881
6972.14306641	0.0337272696197
6982.38085938	0.0339311100543
6992.61914063	0.0340398736298
7002.85693359	0.0342514626682
7013.09521484	0.0348099283874
7023.33349609	0.0350155085325
7033.57128906	0.0354608036578
7043.80957031	0.0359035991132
7054.04785156	0.0368832349777
7064.28564453	0.0374561212957
7074.52392578	0.0386016406119
7084.76171875	0.0405919887125
7095.0	0.0438026823103
7095.25	0.0437229461968
7095.5	0.0438590459526
7095.75	0.0442066416144
7096.0	0.0440852120519
7096.25	0.0443143174052
7096.5	0.0445050857961
7096.75	0.0445765033364
7097.0	0.0446823313832
7097.25	0.0447514727712
7097.5	0.0449000187218
7097.75	0.0450099445879
7098.0	0.0453568287194
7098.25	0.0453299880028
7098.5	0.045553445816
7098.75	0.045542050153
7099.0	0.0457986965775
7099.25	0.0459644347429
7099.5	0.0461199469864
7099.75	0.0462306290865
7100.0	0.0466234460473
7100.25	0.0465678758919
7100.5	0.0467391870916
7100.75	0.0469096601009
7101.0	0.0471199341118
7101.25	0.0474051684141
7101.5	0.0475382134318
7101.75	0.0477001480758
7102.0	0.0478659644723
7102.25	0.0481016486883
7102.5	0.0484003424644
7102.75	0.0485559999943
7103.0	0.0487531200051
7103.25	0.049158975482
7103.5	0.0492650046945
7103.75	0.049650490284
7104.0	0.0498872362077
7104.25	0.0500490963459
7104.5	0.0504067391157
7104.75	0.0506466180086
7105.0	0.0509656891227
7105.25	0.0513074807823
7105.5	0.0517295710742
7105.75	0.0519770309329
7106.0	0.052192658186
7106.25	0.0527683757246
7106.5	0.0532170459628
7106.75	0.0534794069827
7107.0	0.0539174340665
7107.25	0.0544450692832
7107.5	0.0548800975084
7107.75	0.0554300844669
7108.0	0.0558470003307
7108.25	0.0565299354494
7108.5	0.0571502223611
7108.75	0.0579551197588
7109.0	0.0586918853223
7109.25	0.0597092956305
7109.5	0.0606965199113
7109.75	0.0620551779866
7110.0	0.063441991806
7110.25	0.0651735961437
7110.5	0.0670914575458
7110.75	0.0698183625937
7111.0	0.0733272731304
7111.25	0.0771207213402
7111.5	0.0818580463529
7111.75	0.087211355567
7112.0	0.092990398407
7112.25	0.0986465662718
7112.5	0.103994876146
7112.75	0.109068602324
7113.0	0.113098241389
7113.25	0.115209087729
7113.5	0.116413317621
7113.75	0.116198085248
7114.0	0.115044116974
7114.25	0.113065339625
7114.5	0.110066518188
7114.75	0.107380457222
7115.0	0.104147396982
7115.25	0.10220733285
7115.5	0.100441962481
7115.75	0.0999035909772
7116.0	0.100319087505
7116.25	0.101183004677
7116.5	0.10297293216
7116.75	0.105129830539
7117.0	0.10756174475
7117.25	0.110436312854
7117.5	0.114238210022
7117.75	0.117721915245
7118.0	0.122452050447
7118.25	0.127081751823
7118.5	0.133200615644
7118.75	0.139653712511
7119.0	0.147841334343
7119.25	0.156525462866
7119.5	0.16787584126
7119.75	0.179557427764
7120.0	0.193830341101
7120.25	0.209867715836
7120.5	0.228326514363
7120.75	0.248610779643
7121.0	0.271978318691
7121.25	0.296965777874
7121.5	0.326107740402
7121.75	0.357016533613
7122.0	0.388724833727
7122.25	0.423947870731
7122.5	0.461988657713
7122.75	0.501432776451
7123.0	0.538538575172
7123.25	0.57860994339
7123.5	0.616252183914
7123.75	0.655049860477
7124.0	0.689642369747
7124.25	0.727237701416
7124.5	0.761309742928
7124.75	0.800034940243
7125.0	0.836089730263
7125.25	0.878184378147
7125.5	0.918258488178
7125.75	0.965953826904
7126.0	1.00918972492
7126.25	1.06057906151
7126.5	1.10841572285
7126.75	1.15835309029
7127.0	1.20005965233
7127.25	1.24806535244
7127.5	1.28662645817
7127.75	1.32474040985
7128.0	1.35340690613
7128.25	1.38315844536
7128.5	1.40565299988
7128.75	1.42860949039
7129.0	1.44649672508
7129.25	1.46635067463
7129.5	1.4825823307
7129.75	1.50016582012
7130.0	1.51643753052
7130.25	1.53273117542
7130.5	1.55017054081
7130.75	1.56557905674
7131.0	1.57973396778
7131.25	1.59449386597
7131.5	1.60553455353
7131.75	1.61529481411
7132.0	1.62154209614
7132.25	1.62499153614
7132.5	1.62592196465
7132.75	1.62385058403
7133.0	1.61898720264
7133.25	1.61264503002
7133.5	1.60440075397
7133.75	1.5943082571
7134.0	1.58354282379
7134.25	1.57196748257
7134.5	1.55903196335
7134.75	1.54658699036
7135.0	1.5337767601
7135.25	1.52097773552
7135.5	1.50908529758
7135.75	1.49873924255
7136.0	1.48754680157
7136.25	1.47822701931
7136.5	1.46875500679
7136.75	1.46095907688
7137.0	1.45377445221
7137.25	1.44611501694
7137.5	1.43975162506
7137.75	1.43338727951
7138.0	1.42663514614
7138.25	1.42084443569
7138.5	1.41427469254
7138.75	1.40894758701
7139.0	1.4025195837
7139.25	1.39724302292
7139.5	1.39202952385
7139.75	1.38675773144
7140.0	1.38087236881
7140.25	1.37624561787
7140.5	1.37111258507
7140.75	1.3662289381
7141.0	1.36085903645
7141.25	1.35664999485
7141.5	1.35199832916
7141.75	1.34873533249
7142.0	1.34447860718
7142.25	1.34125864506
7142.5	1.33794128895
7142.75	1.33648192883
7143.0	1.33306133747
7143.25	1.3328742981
7143.5	1.33130466938
7143.75	1.33033394814
7144.0	1.32984042168
7144.25	1.32982265949
7144.5	1.32917332649
7144.75	1.32937765121
7145.0	1.32900321484
7145.25	1.32795226574
7145.5	1.32654559612
7145.75	1.32467699051
7146.0	1.32273674011
7146.25	1.32025575638
7146.5	1.31615376472
7146.75	1.31129527092
7147.0	1.30648326874
7147.25	1.29987621307
7147.5	1.29314112663
7147.75	1.28607177734
7148.0	1.27736437321
7148.25	1.26994299889
7148.5	1.26141476631
7148.75	1.25243842602
7149.0	1.24380207062
7149.25	1.23537135124
7149.5	1.22588539124
7149.75	1.21623027325
7150.0	1.20808589458
7150.25	1.19873714447
7150.5	1.19027853012
7150.75	1.18196451664
7151.0	1.17376303673
7151.25	1.16575574875
7151.5	1.15872561932
7151.75	1.1515827179
7152.0	1.14502692223
7152.25	1.13830900192
7152.5	1.13268375397
7152.75	1.12618255615
7153.0	1.12097108364
7153.25	1.11473596096
7153.5	1.109826684
7153.75	1.10459148884
7154.0	1.09983682632
7154.25	1.09453809261
7154.5	1.09036588669
7154.75	1.08591175079
7155.0	1.08178853989
7155.25	1.07746970654
7155.5	1.07402729988
7155.75	1.06970608234
7156.0	1.06611442566
7156.25	1.06276965141
7156.5	1.05950188637
7156.75	1.05645680428
7157.0	1.05339360237
7157.25	1.05048179626
7157.5	1.047981143
7157.75	1.04516899586
7158.0	1.04364037514
7158.25	1.04114091396
7158.5	1.03962099552
7158.75	1.037535429
7159.0	1.03615474701
7159.25	1.03475487232
7159.5	1.03404593468
7159.75	1.03296911716
7160.0	1.03179323673
7161.09472656	1.0318492651
7162.20947266	1.03591692448
7163.34326172	1.04480218887
7164.49707031	1.05838775635
7165.67041016	1.07661473751
7166.86376953	1.09782898426
7168.07617188	1.12159013748
7169.30859375	1.14614701271
7170.56005859	1.17113566399
7171.83154297	1.19617164135
7173.12304688	1.22165846825
7174.43359375	1.24690878391
7175.76367188	1.2670570612
7177.11376953	1.28067016602
7178.48339844	1.29114234447
7179.87255859	1.29938113689
7181.28173828	1.30456078053
7182.70996094	1.30700671673
7184.15820313	1.30661869049
7185.62597656	1.30598151684
7187.11328125	1.30475819111
7188.62011719	1.30453968048
7190.14648438	1.30348575115
7191.69287109	1.30341422558
7193.25878906	1.30319917202
7194.84423828	1.30293166637
7196.44921875	1.30157923698
7198.07373047	1.29898238182
7199.71826172	1.29436445236
7201.38183594	1.28832828999
7203.06542969	1.28193974495
7204.76855469	1.27480018139
7206.49169922	1.26755511761
7208.23388672	1.26007306576
7209.99609375	1.25243222713
7211.77783203	1.24611163139
7213.57910156	1.24146592617
7215.39990234	1.23814380169
7217.24023438	1.23734152317
7219.10058594	1.23905801773
7220.98046875	1.24204695225
7222.87988281	1.24510228634
7224.79882813	1.2475965023
7226.73730469	1.24839782715
7228.69580078	1.24793791771
7230.67333984	1.24662089348
7232.67089844	1.24530625343
7234.68798828	1.24332392216
7236.72509766	1.24142360687
7238.78125	1.24139583111
7240.85742188	1.24255800247
7242.953125	1.24495112896
7245.06835938	1.24920380116
7247.203125	1.25506174564
7249.35742188	1.26211118698
7251.53173828	1.27077627182
7253.72558594	1.27990043163
7255.93896484	1.28928160667
7258.171875	1.29792535305
7260.42431641	1.30547893047
7262.69677734	1.31202530861
7264.98828125	1.31679666042
7267.29980469	1.32057094574
7269.63085938	1.32278549671
7271.98193359	1.32523238659
7274.35205078	1.32630431652
7276.7421875	1.32771730423
7279.15185547	1.32763111591
7281.58105469	1.32772314548
7284.02978516	1.32654738426
7286.49804688	1.32440376282
7288.98632813	1.32153701782
7291.49414063	1.31729614735
7294.02148438	1.31360840797
7296.56835938	1.30868709087
7299.13476563	1.30454695225
7301.72119141	1.30147981644
7304.32666016	1.29931247234
7306.95214844	1.29869031906
7309.59716797	1.29957985878
7312.26220703	1.30162036419
7314.94628906	1.30505549908
7317.65039063	1.30885207653
7320.37353516	1.31296062469
7323.11669922	1.31713104248
7325.87988281	1.32112383842
7328.66210938	1.32396888733
7331.46435547	1.32632923126
7334.28564453	1.32815051079
7337.12695313	1.33007323742
7339.98828125	1.33057272434
7342.86865234	1.33200848103
7345.76855469	1.33252060413
7348.68847656	1.33348155022
7351.62792969	1.33442735672
7354.58691406	1.33497989178
7357.56542969	1.33624625206
7360.56396484	1.33766782284
7363.58154297	1.33925402164
7366.61914063	1.34123003483
7369.67626953	1.34379124641
7372.75292969	1.34732329845
7375.84960938	1.35073900223
7378.96533203	1.35519778728
7382.10107422	1.35906410217
7385.25634766	1.36326169968
7388.43115234	1.36642360687
7391.62597656	1.36929607391
7394.83984375	1.37196528912
7398.07373047	1.37356579304
7401.32714844	1.37440526485
7404.60009766	1.37457108498
7407.89257813	1.373950243
7411.20458984	1.37335789204
7414.53662109	1.37189531326
7417.88818359	1.37120771408
7421.25927734	1.3707665205
7424.64990234	1.37068247795
7428.06005859	1.37110114098
7431.49023438	1.37186980247
7434.93994141	1.37336373329
7438.40917969	1.37510514259
7441.89794922	1.37756574154
7445.40625	1.37967693806
7448.93457031	1.38265776634
7452.48193359	1.38548243046
7456.04931641	1.38863289356
7459.63623047	1.39136230946
7463.24316406	1.39518940449
7466.86914063	1.39871382713
7470.51513672	1.40215194225
7474.18017578	1.4057431221
7477.86523438	1.40898919106
7481.5703125	1.41156208515
7485.29443359	1.41373765469
7489.03857422	1.4160528183
7492.80175781	1.41781842709
7496.58496094	1.41932821274
7500.38769531	1.42053151131
7504.21044922	1.42202210426
7508.05224609	1.42286539078
7511.9140625	1.42462110519
7515.79541016	1.42661130428
7519.69628906	1.42869114876
7523.61669922	1.43148767948
7527.55712891	1.43407535553
7531.51660156	1.43706202507
7535.49609375	1.43993544579
7539.49511719	1.44239223003
7543.51367188	1.44482588768
7547.55175781	1.44788384438
7551.60986328	1.45042395592
7555.6875	1.45285224915
7559.78466797	1.45493125916
7563.90136719	1.45705199242
7568.03759766	1.45925951004
7572.19384766	1.46136868
7576.36914063	1.46348583698
7580.56445313	1.46587073803
7584.77929688	1.46798706055
7589.01367188	1.4699113369
7593.26806641	1.47247755527
7597.54199219	1.47476530075
7601.83496094	1.47732639313
7606.14794922	1.47981762886
7610.48046875	1.4828363657
7614.83300781	1.48550629616
7619.20458984	1.48919379711
7623.59619141	1.49265873432
7628.00732422	1.49629533291
7632.43798828	1.49968910217
7636.88818359	1.503002882
7641.35839844	1.50656294823
7645.84814453	1.51013505459
7650.35742188	1.51362144947
7654.88623047	1.51667332649
7659.43457031	1.52000141144
7664.00244141	1.52385377884
7668.59033203	1.52485716343
7673.19775391	1.5270472765
7677.82470703	1.53031814098
7682.47119141	1.53390681744
7687.13720703	1.53571593761
7691.82324219	1.53877496719
7696.52832031	1.54158747196
7701.25341797	1.54451334476
7705.99804688	1.54740703106
7710.76269531	1.55050206184
7715.54638672	1.55396735668
7720.35009766	1.55765914917
7725.17333984	1.55988311768
7730.01611328	1.56371819973
7734.87841797	1.5661123991
7739.76025391	1.56976139545
7744.66210938	1.573741436
7749.58349609	1.57701456547
7754.52441406	1.58073151112
7759.48486328	1.58397531509
7764.46484375	1.5874414444
7769.46484375	1.59076118469
7774.484375	1.59446370602
7779.5234375	1.5977563858
7784.58203125	1.60123372078
7789.66015625	1.60433244705
7794.7578125	1.60812735558
7799.87548828	1.61198651791
7805.01269531	1.61566114426
7810.16943359	1.61920559406
7815.34570313	1.62272179127
7820.54199219	1.62674880028
7825.75732422	1.63039767742
7830.99267578	1.63401293755
7836.24755859	1.63766670227
7841.52197266	1.64180636406
7846.81591797	1.64569783211
7852.12988281	1.64950633049
7857.46337891	1.65373921394
7862.81640625	1.65749561787
7868.18896484	1.66140675545
7873.58105469	1.66542255878
7878.99267578	1.66912484169
7884.42431641	1.67289960384
7889.87548828	1.67653596401
7895.34619141	1.68069493771
7900.83642578	1.68515789509
7906.34667969	1.68883657455
7911.87597656	1.69333696365
7917.42529297	1.69753170013
7922.99414063	1.70203471184
7928.58251953	1.7058519125
7934.19042969	1.70974051952
7939.81835938	1.71401965618
7945.46582031	1.71829104424
7951.1328125	1.72255754471
7956.81933594	1.72696089745
7962.52539063	1.73161530495
7968.25097656	1.73631727695
7973.99658203	1.74069833755
7979.76171875	1.74537074566
7985.54638672	1.74992668629
7991.35058594	1.75427746773
7997.17480469	1.75912094116
8003.01806641	1.76352405548
8008.88134766	1.76828753948
8014.76416016	1.77285599709
8020.66650391	1.77742063999
8026.58837891	1.78193640709
8032.53027344	1.78603863716
8038.49169922	1.79057252407
8044.47216797	1.79526185989
8050.47314453	1.7995749712
8056.49316406	1.80388057232
8062.53271484	1.80823850632
8068.59228516	1.81292581558
8074.67138672	1.81752729416
8080.77001953	1.82196938992
8086.88818359	1.82660353184
8093.02587891	1.83097529411
8099.18359375	1.83595395088
8105.36083984	1.84038472176
