# Averaged Data //Vboxsvr/xafsdata/Standards/FeS_001_fl.avg created by SamView
6880.0	0.0373322404921
6890.23828125	0.0375429242849
6900.47607422	0.0380387455225
6910.71435547	0.0387543179095
6920.95214844	0.0395701751113
6931.19042969	0.0399244129658
6941.42871094	0.0405122563243
6951.66650391	0.0408307127655
6961.90478516	0.0411507561803
6972.14306641	0.0415699221194
6982.38085938	0.042076818645
6992.61914063	0.0427312143147
7002.85693359	0.0434193648398
7013.09521484	0.04418284446
7023.33349609	0.0448820069432
7033.57128906	0.0454724393785
7043.80957031	0.0461567156017
7054.04785156	0.0468080751598
7064.28564453	0.0476958081126
7074.52392578	0.048399079591
7084.76171875	0.0498023554683
7095.0	0.0511138178408
7095.14990234	0.0512035042048
7095.30029297	0.0511188991368
7095.45019531	0.0512191988528
7095.60058594	0.0511653758585
7095.75048828	0.0513090603054
7095.90087891	0.051479563117
7096.05078125	0.0515485703945
7096.20068359	0.0511801950634
7096.35107422	0.0513109527528
7096.50097656	0.0515489950776
7096.65136719	0.0514080747962
7096.80126953	0.0514375977218
7096.95166016	0.0516161844134
7097.1015625	0.0515644364059
7097.25195313	0.0515896938741
7097.40185547	0.0514308959246
7097.55175781	0.0516151599586
7097.70214844	0.0517427623272
7097.85205078	0.0517512783408
7098.00244141	0.051840506494
7098.15234375	0.0518348999321
7098.30273438	0.0518354959786
7098.45263672	0.0520059093833
7098.60253906	0.0518682561815
7098.75292969	0.0518088899553
7098.90283203	0.0518769696355
7099.05322266	0.0519347302616
7099.203125	0.0519017651677
7099.35351563	0.0522184446454
7099.50341797	0.0520695932209
7099.65380859	0.0521506741643
7099.80371094	0.0522940270603
7099.95361328	0.0522745288908
7100.10400391	0.0523828603327
7100.25390625	0.0523527339101
7100.40429688	0.0523028858006
7100.55419922	0.0525659583509
7100.70458984	0.0525044128299
7100.85449219	0.052593883127
7101.00439453	0.0525989718735
7101.15478516	0.0525305196643
7101.3046875	0.052647087723
7101.45507813	0.0528039559722
7101.60498047	0.0528182908893
7101.75537109	0.0529066771269
7101.90527344	0.0528724193573
7102.05566406	0.0530141331255
7102.20556641	0.0530192069709
7102.35546875	0.0528365820646
7102.50585938	0.05313141644
7102.65576172	0.0531989336014
7102.80615234	0.0531363300979
7102.95605469	0.0532562509179
7103.10644531	0.0533075332642
7103.25634766	0.0534051135182
7103.40625	0.053288128227
7103.55664063	0.0537054054439
7103.70654297	0.0534171052277
7103.85693359	0.0537571460009
7104.00683594	0.0536260567605
7104.15722656	0.0537211745977
7104.30712891	0.0539604127407
7104.45703125	0.0539861544967
7104.60742188	0.0540653541684
7104.75732422	0.0540724955499
7104.90771484	0.054038643837
7105.05761719	0.0543130710721
7105.20800781	0.0544985085726
7105.35791016	0.0544354654849
7105.50830078	0.0544681325555
7105.65820313	0.0548106506467
7105.80810547	0.0548835769296
7105.95849609	0.0548249669373
7106.10839844	0.0549283511937
7106.25878906	0.0550648756325
7106.40869141	0.0551186650991
7106.55908203	0.055370952934
7106.70898438	0.0554918721318
7106.85888672	0.055632520467
7107.00927734	0.0557747557759
7107.15917969	0.055865958333
7107.30957031	0.0562236495316
7107.45947266	0.0560355074704
7107.60986328	0.0563751868904
7107.75976563	0.0564287565649
7107.91015625	0.0567048154771
7108.06005859	0.0568992868066
7108.20996094	0.0571094453335
7108.36035156	0.0572176612914
7108.51025391	0.0577012486756
7108.66064453	0.0576402507722
7108.81054688	0.0582295842469
7108.9609375	0.0583529099822
7109.11083984	0.059131924063
7109.26074219	0.0595793537796
7109.41113281	0.0598755739629
7109.56103516	0.0607136338949
7109.71142578	0.0615609847009
7109.86132813	0.0623620301485
7110.01171875	0.0635151416063
7110.16162109	0.0646602064371
7110.31201172	0.0659345313907
7110.46191406	0.0672483146191
7110.61181641	0.0686315372586
7110.76220703	0.0701978728175
7110.91210938	0.0715894028544
7111.0625	0.0729371011257
7111.21240234	0.0737814977765
7111.36279297	0.0749304518104
7111.51269531	0.0759068056941
7111.66259766	0.0768133923411
7111.81298828	0.0773738697171
7111.96289063	0.0780468061566
7112.11328125	0.0785523280501
7112.26318359	0.0792270451784
7112.41357422	0.0797631144524
7112.56347656	0.0804767757654
7112.71386719	0.0807968825102
7112.86376953	0.0813051536679
7113.01367188	0.0822491794825
7113.1640625	0.0828331932425
7113.31396484	0.0835876166821
7113.46435547	0.0843788683414
7113.61425781	0.0858337953687
7113.76464844	0.0867361426353
7113.91455078	0.0881283134222
7114.06445313	0.0898761078715
7114.21484375	0.0913373753428
7114.36474609	0.0933172032237
7114.51513672	0.095603838563
7114.66503906	0.0979031547904
7114.81542969	0.100427858531
7114.96533203	0.103297360241
7115.11523438	0.10590878129
7115.265625	0.108844906092
7115.41552734	0.112289406359
7115.56591797	0.1159472242
7115.71582031	0.119210056961
7115.86621094	0.12289622426
7116.01611328	0.127064675093
7116.16650391	0.130281716585
7116.31640625	0.133713886142
7116.46630859	0.138070046902
7116.61669922	0.142155691981
7116.76660156	0.145627841353
7116.91699219	0.149539977312
7117.06689453	0.153264552355
7117.21728516	0.156580656767
7117.3671875	0.160140931606
7117.51708984	0.164067685604
7117.66748047	0.167227074504
7117.81738281	0.170408725739
7117.96777344	0.174038112164
7118.11767578	0.176791638136
7118.26806641	0.179776161909
7118.41796875	0.182561576366
7118.56835938	0.185012251139
7118.71826172	0.187648594379
7118.86816406	0.189788967371
7119.01855469	0.19194547832
7119.16845703	0.193488761783
7119.31884766	0.195602506399
7119.46875	0.196926236153
7119.61914063	0.198286086321
7119.76904297	0.199544742703
7119.91894531	0.200851067901
7120.06933594	0.201678454876
7120.21923828	0.202634140849
7120.36962891	0.203648015857
7120.51953125	0.204319804907
7120.66992188	0.204868644476
7120.81982422	0.205016851425
7120.97021484	0.205555349588
7121.12011719	0.205828249454
7121.27001953	0.206639051437
7121.42041016	0.207067832351
7121.5703125	0.207489088178
7121.72070313	0.208402171731
7121.87060547	0.208714857697
7122.02099609	0.208875179291
7122.17089844	0.209835663438
7122.32080078	0.210354313254
7122.47119141	0.211245492101
7122.62109375	0.211716011167
7122.77148438	0.21240670979
7122.92138672	0.213121429086
7123.07177734	0.21382650733
7123.22167969	0.214343011379
7123.37158203	0.215307205915
7123.52197266	0.21608620882
7123.671875	0.216620996594
7123.82226563	0.217627301812
7123.97216797	0.218278482556
7124.12255859	0.219591841102
7124.27246094	0.220045790076
7124.42285156	0.220527991652
7124.57275391	0.221506759524
7124.72265625	0.222135365009
7124.87304688	0.222754105926
7125.02294922	0.222868323326
7125.17333984	0.223850414157
7125.32324219	0.22466558218
7125.47363281	0.225204855204
7125.62353516	0.225947365165
7125.7734375	0.226481467485
7125.92382813	0.22664822638
7126.07373047	0.227335706353
7126.22412109	0.227975845337
7126.37402344	0.228713780642
7126.52441406	0.22893846035
7126.67431641	0.229448869824
7126.82470703	0.229884847999
7126.97460938	0.23032541573
7127.12451172	0.230708196759
7127.27490234	0.231505125761
7127.42480469	0.232107117772
7127.57519531	0.232808038592
7127.72509766	0.232987254858
7127.87548828	0.233606219292
7128.02539063	0.234457850456
7128.17529297	0.234460458159
7128.32568359	0.23540392518
7128.47558594	0.235587030649
7128.62597656	0.236273095012
7128.77587891	0.236476674676
7128.92626953	0.236814841628
7129.07617188	0.237006247044
7129.2265625	0.237422034144
7129.37646484	0.237303674221
7129.52636719	0.238309785724
7129.67675781	0.238091856241
7129.82666016	0.23829549551
7129.97705078	0.238438144326
7130.12695313	0.238610863686
7130.27734375	0.238588169217
7130.42724609	0.238557726145
7130.57714844	0.238229513168
7130.72753906	0.238474816084
7130.87744141	0.238384768367
7131.02783203	0.238851711154
7131.17773438	0.238544851542
7131.328125	0.238462433219
7131.47802734	0.238471776247
7131.62841797	0.238595128059
7131.77832031	0.238440752029
7131.92822266	0.238529831171
7132.07861328	0.238768741488
7132.22851563	0.238283708692
7132.37890625	0.238775119185
7132.52880859	0.238694682717
7132.67919922	0.238663345575
7132.82910156	0.23816794157
7132.97900391	0.238401308656
7133.12939453	0.238178893924
7133.27929688	0.238126158714
7133.4296875	0.238191127777
7133.57958984	0.238044500351
7133.72998047	0.23805886507
7133.87988281	0.238477483392
7134.02978516	0.238035306334
7134.18017578	0.23810634017
7134.33007813	0.237476155162
7134.48046875	0.237582787871
7134.63037109	0.237748488784
7134.78076172	0.237597152591
7134.93066406	0.237741008401
7135.08105469	0.237778156996
7135.23095703	0.237708598375
7135.38085938	0.237735778093
7135.53125	0.237784802914
7135.68115234	0.237316146493
7135.83154297	0.238029196858
7135.98144531	0.237557277083
7136.13183594	0.237311258912
7136.28173828	0.237721443176
7136.43164063	0.237682655454
7136.58203125	0.237647905946
7136.73193359	0.237258136272
7136.88232422	0.237759873271
7137.03222656	0.237248599529
7137.18261719	0.237094342709
7137.33251953	0.237218335271
7137.48291016	0.236825689673
7137.6328125	0.237141728401
7137.78271484	0.236552864313
7137.93310547	0.236779719591
7138.08300781	0.236526235938
7138.23339844	0.236556217074
7138.38330078	0.236704260111
7138.53369141	0.23643219471
7138.68359375	0.235910966992
7138.83349609	0.235988005996
7138.98388672	0.235947921872
7139.13378906	0.235876858234
7139.28417969	0.235487237573
7139.43408203	0.235408604145
7139.58447266	0.235376983881
7139.734375	0.235206544399
7139.88476563	0.234975874424
7140.03466797	0.234738901258
7140.18457031	0.234978064895
7140.33496094	0.234467804432
7140.48486328	0.234574347734
7140.63525391	0.234400823712
7140.78515625	0.234467491508
7140.93554688	0.234582975507
7141.08544922	0.234292045236
7141.23535156	0.234298229218
7141.38574219	0.234161153436
7141.53564453	0.233738213778
7141.68603516	0.233936652541
7141.8359375	0.233676150441
7141.98632813	0.233965620399
7142.13623047	0.233274713159
7142.28613281	0.23339343071
7142.43652344	0.233406484127
7142.58642578	0.23297894001
7142.73681641	0.23326857388
7142.88671875	0.23286037147
7143.03710938	0.233276620507
7143.18701172	0.232716545463
7143.33740234	0.232681334019
7143.48730469	0.232230514288
7143.63720703	0.232248008251
7143.78759766	0.232648983598
7143.9375	0.232281044126
7144.08789063	0.232078194618
7144.23779297	0.231543883681
7144.38818359	0.232312873006
7144.53808594	0.231720969081
7144.68798828	0.231889247894
7144.83837891	0.231754690409
7144.98828125	0.231519207358
7145.13867188	0.231339275837
7145.28857422	0.231725126505
7145.43896484	0.231363996863
7145.58886719	0.23155759275
7145.73925781	0.231188461185
7145.88916016	0.231277123094
7146.0390625	0.231375977397
7146.18945313	0.230619549751
7146.33935547	0.230915054679
7146.48974609	0.230348035693
7146.63964844	0.230525225401
7146.79003906	0.230968281627
7146.93994141	0.230265125632
7147.08984375	0.229933604598
7147.24023438	0.230208218098
7147.39013672	0.229784607887
7147.54052734	0.229885280132
7147.69042969	0.229681313038
7147.84082031	0.229427918792
7147.99072266	0.229059129953
7148.14111328	0.229123324156
7148.29101563	0.228992655873
7148.44091797	0.228653788567
7148.59130859	0.22857169807
7148.74121094	0.228608444333
7148.89160156	0.2278727144
7149.04150391	0.227988228202
7149.19189453	0.227998286486
7149.34179688	0.227797850966
7149.49169922	0.227502822876
7149.64208984	0.227022647858
7149.79199219	0.22684161365
7149.94238281	0.227350652218
7150.09228516	0.226742371917
7150.24267578	0.226406291127
7150.39257813	0.226413115859
7150.54296875	0.226041853428
7150.69287109	0.226293414831
7150.84277344	0.225648671389
7150.99316406	0.225738152862
7151.14306641	0.225410401821
7151.29345703	0.22525934875
7151.44335938	0.224749863148
7151.59375	0.224311813712
7151.74365234	0.224599272013
7151.89355469	0.224359288812
7152.04394531	0.224206075072
7152.19384766	0.223825395107
7152.34423828	0.223963230848
7152.49414063	0.223944053054
7152.64453125	0.22346778214
7152.79443359	0.223215669394
7152.94433594	0.222794234753
7153.09472656	0.223219886422
7153.24462891	0.222674235702
7153.39501953	0.223016530275
7153.54492188	0.222491756082
7153.6953125	0.222714602947
7153.84521484	0.222207590938
7153.99560547	0.222254708409
7154.14550781	0.221996694803
7154.29541016	0.221696719527
7154.44580078	0.222013577819
7154.59570313	0.222073301673
7154.74609375	0.221826568246
7154.89599609	0.221604630351
7155.04638672	0.221373647451
7155.19628906	0.221562162042
7155.34619141	0.221550613642
7155.49658203	0.221328124404
7155.64648438	0.221275344491
7155.796875	0.22120924294
7155.94677734	0.221430510283
7156.09716797	0.221384093165
7156.24707031	0.221502229571
7156.39746094	0.22149579227
7156.54736328	0.221456855536
7156.69726563	0.22173409164
7156.84765625	0.221643775702
7156.99755859	0.221920132637
7157.14794922	0.221717432141
7157.29785156	0.221609205008
7157.44824219	0.222013995051
7157.59814453	0.221645802259
7157.74804688	0.221672683954
7157.8984375	0.221894279122
7158.04833984	0.221765145659
7158.19873047	0.221782237291
7158.34863281	0.222186774015
7158.49902344	0.222176492214
7158.64892578	0.222405701876
7158.79931641	0.222284436226
7158.94921875	0.222303047776
7159.09912109	0.22221930325
7159.24951172	0.222692400217
7159.39941406	0.222719818354
7159.54980469	0.223025754094
7159.69970703	0.222732841969
7159.85009766	0.223089814186
7160.0	0.223274126649
7161.09082031	0.224487349391
7162.20068359	0.225985184312
7163.33056641	0.227033182979
7164.47949219	0.228913813829
7165.64794922	0.230328932405
7166.8359375	0.232557818294
7168.04345703	0.234582602978
7169.27050781	0.236817047
7170.51660156	0.238754108548
7171.78271484	0.240525051951
7173.06787109	0.242338404059
7174.37304688	0.243195652962
7175.69726563	0.244246676564
7177.04101563	0.245164200664
7178.40429688	0.24567706883
7179.78710938	0.245718345046
7181.18896484	0.245722472668
7182.61083984	0.24481780827
7184.05175781	0.244784593582
7185.51269531	0.244559288025
7186.99267578	0.243933349848
7188.4921875	0.243945553899
7190.01123047	0.243960365653
7191.54980469	0.241546034813
7193.10791016	0.243354722857
7194.68505859	0.244624450803
7196.28222656	0.24031855166
7197.8984375	0.241198584437
7199.53417969	0.240720182657
7201.18994141	0.240539520979
7202.86474609	0.240210294724
7204.55908203	0.240068912506
7206.27246094	0.240339621902
7208.00585938	0.241033405066
7209.75878906	0.241403192282
7211.53076172	0.24205493927
7213.32226563	0.242345348001
7215.13330078	0.243661686778
7216.96435547	0.244459405541
7218.81396484	0.245132610202
7220.68359375	0.246371462941
7222.57275391	0.247336998582
7224.48144531	0.247945427895
7226.40917969	0.249331057072
7228.35644531	0.249840408564
7230.32373047	0.25081679225
7232.31005859	0.25166875124
7234.31591797	0.252427756786
7236.34130859	0.252791553736
7238.38574219	0.25377702713
7240.45019531	0.254343390465
7242.53369141	0.254269301891
7244.63720703	0.255210161209
7246.75976563	0.255259811878
7248.90185547	0.255818903446
7251.06347656	0.255829453468
7253.24462891	0.256454229355
7255.4453125	0.25640141964
7257.66552734	0.256371110678
7259.90478516	0.256412297487
7262.16357422	0.257236123085
7264.44238281	0.257268369198
7266.74023438	0.257748067379
7269.05761719	0.258222520351
7271.39453125	0.258999139071
7273.75097656	0.259490966797
7276.12646484	0.259866803885
7278.52197266	0.260550498962
7280.93701172	0.261105358601
7283.37109375	0.261880815029
7285.82470703	0.262141942978
7288.29785156	0.26322928071
7290.79052734	0.263448238373
7293.30273438	0.264249712229
7295.83447266	0.264793276787
7298.38525391	0.265295356512
7300.95605469	0.265513658524
7303.54589844	0.26631718874
7306.15527344	0.267022371292
7308.78466797	0.267745524645
7311.43310547	0.268647521734
7314.10058594	0.2691437006
7316.78808594	0.269567906857
7319.49511719	0.27071005106
7322.22119141	0.271253734827
7324.96728516	0.27182713151
7327.73242188	0.272920787334
7330.51708984	0.273403346539
7333.32128906	0.273973852396
7336.14501953	0.274972587824
7338.98828125	0.275311291218
7341.85107422	0.275992363691
7344.73291016	0.276674032211
7347.63476563	0.277429610491
7350.55566406	0.277899295092
7353.49609375	0.27854052186
7356.45605469	0.278879344463
7359.43554688	0.27937746048
7362.43457031	0.279988914728
7365.453125	0.280245363712
7368.49121094	0.281691759825
7371.54833984	0.282373249531
7374.625	0.282381057739
7377.72167969	0.28307557106
7380.83740234	0.283396154642
7383.97265625	0.284321367741
7387.12744141	0.285322964191
7390.30175781	0.28631272912
7393.49511719	0.287155896425
7396.70849609	0.287847280502
7399.94091797	0.288724035025
7403.19287109	0.289696335793
7406.46484375	0.290244996548
7409.75585938	0.291383445263
7413.06640625	0.291963815689
7416.39599609	0.292682260275
7419.74560547	0.293568581343
7423.11474609	0.29460439086
7426.50292969	0.295370787382
7429.91064453	0.295857310295
7433.33837891	0.296623766422
7436.78515625	0.297420561314
7440.25146484	0.297891825438
7443.73681641	0.298827886581
7447.2421875	0.300103694201
7450.76708984	0.30110013485
7454.31103516	0.301942080259
7457.875	0.302757799625
7461.45800781	0.303586632013
7465.06054688	0.304411649704
7468.68261719	0.305279314518
7472.32421875	0.306139707565
7475.98535156	0.306780427694
7479.66552734	0.307960122824
7483.36572266	0.308963090181
7487.08496094	0.31007245183
7490.82421875	0.31100320816
7494.58251953	0.312246710062
7498.36035156	0.313343137503
7502.15771484	0.314476728439
7505.97412109	0.315371483564
7509.81054688	0.316622376442
7513.66650391	0.317440778017
7517.54150391	0.318605333567
7521.43603516	0.319408714771
7525.35058594	0.320688158274
7529.28417969	0.321390032768
7533.23730469	0.322355031967
7537.20996094	0.32327196002
7541.20166016	0.324202626944
7545.21337891	0.325597286224
7549.24414063	0.326505184174
7553.29492188	0.327622294426
7557.36474609	0.328633487225
7561.45410156	0.32959201932
7565.56298828	0.330523908138
7569.69140625	0.331560462713
7573.83935547	0.332571476698
7578.00634766	0.333688676357
7582.19335938	0.334942907095
7586.39941406	0.335790842772
7590.625	0.33691328764
7594.87060547	0.33810031414
7599.13525391	0.339017033577
7603.41943359	0.340046465397
7607.72265625	0.341127932072
7612.04589844	0.341885238886
7616.38867188	0.34338721633
7620.75048828	0.34473207593
7625.13183594	0.345513015985
7629.53320313	0.346773862839
7633.95361328	0.347950786352
7638.39355469	0.349361866713
7642.85253906	0.35027384758
7647.33154297	0.351848721504
7651.83007813	0.352787107229
7656.34765625	0.354148864746
7660.88525391	0.35542473197
7665.44189453	0.356496751308
7670.01806641	0.357665330172
7674.61376953	0.359038621187
7679.22900391	0.359949588776
7683.86328125	0.358445078135
7688.51757813	0.365620583296
7693.19140625	0.360967189074
7697.88427734	0.364906132221
7702.59667969	0.366109788418
7707.32861328	0.370078414679
7712.08007813	0.364723205566
7716.85107422	0.37080925703
7721.64160156	0.371621727943
7726.45166016	0.3732406497
7731.28076172	0.374533265829
7736.12988281	0.376101821661
7740.99804688	0.377348512411
7745.88574219	0.378783881664
7750.79296875	0.380604028702
7755.71972656	0.382035940886
7760.66601563	0.383625417948
7765.63183594	0.385250657797
7770.61669922	0.386890023947
7775.62158203	0.388288915157
7780.64550781	0.389686822891
7785.68945313	0.390685647726
7790.75244141	0.392634689808
7795.83496094	0.394538491964
7800.93652344	0.396039068699
7806.05810547	0.397739678621
7811.19921875	0.399060577154
7816.359375	0.400692254305
7821.53955078	0.402274340391
7826.73876953	0.403758525848
7831.95751953	0.405448824167
7837.19580078	0.406981885433
7842.45361328	0.408330529928
7847.73095703	0.409928977489
7853.02783203	0.411430567503
7858.34375	0.412444770336
7863.67919922	0.414052337408
7869.03466797	0.415656268597
7874.40917969	0.417402893305
7879.80322266	0.418573111296
7885.21679688	0.420253992081
7890.64990234	0.422363549471
7896.10253906	0.423537164927
7901.57421875	0.425383538008
7907.06591797	0.426924616098
7912.57666016	0.428599655628
7918.10693359	0.430402934551
7923.65673828	0.43209785223
7929.22607422	0.433554112911
7934.81494141	0.435579061508
7940.42333984	0.437357455492
7946.05078125	0.439104408026
7951.69824219	0.440952688456
7957.36474609	0.442710548639
7963.05126953	0.444319993258
7968.75683594	0.446300208569
7974.48193359	0.447663277388
7980.2265625	0.449530810118
7985.99023438	0.451053619385
7991.77392578	0.452418357134
7997.57714844	0.454325467348
8003.39941406	0.455839008093
8009.24121094	0.457567304373
8015.10253906	0.459253400564
8020.98388672	0.461035370827
8026.88378906	0.462910115719
8032.80371094	0.464685887098
8038.74316406	0.466289937496
8044.70214844	0.468558043242
8050.68017578	0.47051268816
8056.67773438	0.472939163446
8062.6953125	0.475127965212
8068.73193359	0.477186739445
8074.78808594	0.479943007231
8080.86376953	0.481600642204
8086.95849609	0.48401093483
8093.07324219	0.485913604498
8099.20703125	0.488441079855
8105.36083984	0.490655094385
