# Averaged Data //Vboxsvr/xafsdata/Standards/goethite_001_fl.avg created by SamView
6880.0	0.106307655573
6890.23828125	0.106257416308
6900.47607422	0.10723028332
6910.71435547	0.107412278652
6920.95214844	0.108034566045
6931.19042969	0.108455359936
6941.42871094	0.10864470154
6951.66650391	0.109289221466
6961.90478516	0.109898641706
6972.14306641	0.110351800919
6982.38085938	0.110793359578
6992.61914063	0.111569859087
7002.85693359	0.113049395382
7013.09521484	0.114607013762
7023.33349609	0.115371800959
7033.57128906	0.117002792656
7043.80957031	0.119189798832
7054.04785156	0.121847398579
7064.28564453	0.125652506948
7074.52392578	0.130489781499
7084.76171875	0.137883484364
7095.0	0.151634603739
7095.25	0.152294591069
7095.5	0.15280559659
7095.75	0.152894556522
7096.0	0.15387442708
7096.25	0.154214978218
7096.5	0.154564827681
7096.75	0.155222401023
7097.0	0.155293494463
7097.25	0.155986025929
7097.5	0.156098097563
7097.75	0.156925424933
7098.0	0.15754750371
7098.25	0.158210784197
7098.5	0.159142777324
7098.75	0.159276083112
7099.0	0.160061791539
7099.25	0.160755440593
7099.5	0.161409318447
7099.75	0.162041008472
7100.0	0.162308335304
7100.25	0.16351480782
7100.5	0.1642870754
7100.75	0.165522873402
7101.0	0.16596339643
7101.25	0.166632115841
7101.5	0.167426347733
7101.75	0.168231636286
7102.0	0.169238165021
7102.25	0.170068964362
7102.5	0.17081618309
7102.75	0.171948000789
7103.0	0.172480285168
7103.25	0.173644036055
7103.5	0.174880757928
7103.75	0.175810724497
7104.0	0.176978394389
7104.25	0.177958384156
7104.5	0.178967446089
7104.75	0.179984584451
7105.0	0.18175509572
7105.25	0.182850271463
7105.5	0.184464395046
7105.75	0.186121448874
7106.0	0.1871920228
7106.25	0.188486889005
7106.5	0.190632909536
7106.75	0.192192167044
7107.0	0.194226741791
7107.25	0.195573449135
7107.5	0.198623463511
7107.75	0.200437098742
7108.0	0.202980905771
7108.25	0.205860257149
7108.5	0.208162039518
7108.75	0.211173579097
7109.0	0.21523194015
7109.25	0.218525066972
7109.5	0.222843036056
7109.75	0.22849573195
7110.0	0.235012993217
7110.25	0.242758929729
7110.5	0.252815127373
7110.75	0.264507889748
7111.0	0.281009882689
7111.25	0.298861294985
7111.5	0.321213245392
7111.75	0.341482073069
7112.0	0.366638839245
7112.25	0.390056222677
7112.5	0.412445068359
7112.75	0.431192964315
7113.0	0.447766363621
7113.25	0.459780752659
7113.5	0.469556570053
7113.75	0.477083235979
7114.0	0.478774815798
7114.25	0.475780695677
7114.5	0.468991905451
7114.75	0.462292999029
7115.0	0.459374070168
7115.25	0.460237622261
7115.5	0.464393407106
7115.75	0.471516162157
7116.0	0.47927287221
7116.25	0.488138318062
7116.5	0.497820645571
7116.75	0.509080767632
7117.0	0.519055426121
7117.25	0.53110897541
7117.5	0.542984902859
7117.75	0.559459149837
7118.0	0.575499117374
7118.25	0.598316371441
7118.5	0.621319174767
7118.75	0.655247151852
7119.0	0.6902551651
7119.25	0.737058460712
7119.5	0.785241603851
7119.75	0.848883867264
7120.0	0.915073573589
7120.25	0.999439716339
7120.5	1.08373308182
7120.75	1.18951904774
7121.0	1.29586160183
7121.25	1.42063701153
7121.5	1.53885984421
7121.75	1.68147778511
7122.0	1.81498682499
7122.25	1.94879233837
7122.5	2.07862186432
7122.75	2.22018265724
7123.0	2.34987664223
7123.25	2.4769859314
7123.5	2.60567259789
7123.75	2.73722743988
7124.0	2.86594510078
7124.25	2.99619245529
7124.5	3.13444042206
7124.75	3.27305841446
7125.0	3.41887950897
7125.25	3.56028079987
7125.5	3.70874428749
7125.75	3.85004258156
7126.0	4.00096559525
7126.25	4.13130760193
7126.5	4.27602052689
7126.75	4.40486288071
7127.0	4.53845930099
7127.25	4.64901542664
7127.5	4.77321243286
7127.75	4.88150835037
7128.0	4.9871263504
7128.25	5.07080507278
7128.5	5.15323877335
7128.75	5.21044158936
7129.0	5.26325702667
7129.25	5.2957201004
7129.5	5.32211208344
7129.75	5.33061027527
7130.0	5.33714914322
7130.25	5.33461713791
7130.5	5.3247385025
7130.75	5.31819677353
7131.0	5.30562829971
7131.25	5.29693984985
7131.5	5.28274583817
7131.75	5.27120923996
7132.0	5.26142692566
7132.25	5.25391435623
7132.5	5.24389362335
7132.75	5.23370313644
7133.0	5.22055101395
7133.25	5.2072558403
7133.5	5.19222974777
7133.75	5.17350292206
7134.0	5.15260887146
7134.25	5.13592243195
7134.5	5.11413478851
7134.75	5.0963306427
7135.0	5.07654523849
7135.25	5.05991840363
7135.5	5.04437446594
7135.75	5.02986621857
7136.0	5.01498317719
7136.25	4.99860858917
7136.5	4.97826719284
7136.75	4.96432542801
7137.0	4.94403553009
7137.25	4.92484235764
7137.5	4.90145492554
7137.75	4.87687683105
7138.0	4.85358572006
7138.25	4.82497882843
7138.5	4.8008351326
7138.75	4.7731962204
7139.0	4.74814224243
7139.25	4.72415113449
7139.5	4.70174646378
7139.75	4.68038892746
7140.0	4.65917921066
7140.25	4.64034891129
7140.5	4.62288761139
7140.75	4.60356998444
7141.0	4.58802843094
7141.25	4.57372522354
7141.5	4.55881881714
7141.75	4.54676389694
7142.0	4.53408336639
7142.25	4.52164459229
7142.5	4.50905179977
7142.75	4.49906349182
7143.0	4.48771572113
7143.25	4.47915744781
7143.5	4.47152519226
7143.75	4.46534061432
7144.0	4.45553350449
7144.25	4.44915723801
7144.5	4.44397449493
7144.75	4.43895959854
7145.0	4.43424892426
7145.25	4.42640113831
7145.5	4.41927528381
7145.75	4.41257095337
7146.0	4.40576553345
7146.25	4.39726543427
7146.5	4.38528108597
7146.75	4.37466335297
7147.0	4.36293315887
7147.25	4.34856653214
7147.5	4.3319144249
7147.75	4.31540870667
7148.0	4.29985666275
7148.25	4.27775287628
7148.5	4.25653171539
7148.75	4.23386955261
7149.0	4.21042537689
7149.25	4.18618535995
7149.5	4.16161966324
7149.75	4.13661909103
7150.0	4.11176586151
7150.25	4.08784723282
7150.5	4.06471681595
7150.75	4.04174375534
7151.0	4.02021360397
7151.25	4.00089836121
7151.5	3.9834856987
7151.75	3.96605348587
7152.0	3.94983577728
7152.25	3.93508291245
7152.5	3.92028474808
7152.75	3.90822219849
7153.0	3.89591503143
7153.25	3.88284301758
7153.5	3.87154054642
7153.75	3.86197161674
7154.0	3.85288047791
7154.25	3.84101748466
7154.5	3.83210015297
7154.75	3.82196450233
7155.0	3.81299638748
7155.25	3.80298089981
7155.5	3.79370570183
7155.75	3.78586220741
7156.0	3.778175354
7156.25	3.7699906826
7156.5	3.76066374779
7156.75	3.75509881973
7157.0	3.74738502502
7157.25	3.74280977249
7157.5	3.73553323746
7157.75	3.73392367363
7158.0	3.72745847702
7158.25	3.72595119476
7158.5	3.72385406494
7158.75	3.72263026237
7159.0	3.72231221199
7159.25	3.7230618
7159.5	3.72344064713
7159.75	3.72653269768
7160.0	3.7271463871
7161.09472656	3.74796152115
7162.20947266	3.77714657784
7163.34326172	3.82162213326
7164.49707031	3.875228405
7165.67041016	3.93749308586
7166.86376953	4.00592947006
7168.07617188	4.07743692398
7169.30859375	4.1494345665
7170.56005859	4.22161102295
7171.83154297	4.29282712936
7173.12304688	4.36890935898
7174.43359375	4.44110393524
7175.76367188	4.48951482773
7177.11376953	4.51282310486
7178.48339844	4.52138662338
7179.87255859	4.51659536362
7181.28173828	4.50845909119
7182.70996094	4.50211334229
7184.15820313	4.49709272385
7185.62597656	4.50089502335
7187.11328125	4.50335597992
7188.62011719	4.5055398941
7190.14648438	4.50766801834
7191.69287109	4.50714921951
7193.25878906	4.5080075264
7194.84423828	4.51122951508
7196.44921875	4.51191186905
7198.07373047	4.51002025604
7199.71826172	4.5010342598
7201.38183594	4.48852014542
7203.06542969	4.47290372849
7204.76855469	4.45216560364
7206.49169922	4.42895746231
7208.23388672	4.40671348572
7209.99609375	4.38609457016
7211.77783203	4.36978960037
7213.57910156	4.35633182526
7215.39990234	4.34773206711
7217.24023438	4.34282588959
7219.10058594	4.33967733383
7220.98046875	4.34233760834
7222.87988281	4.3507027626
7224.79882813	4.3643693924
7226.73730469	4.38070058823
7228.69580078	4.39670324326
7230.67333984	4.41133737564
7232.67089844	4.42195558548
7234.68798828	4.43450260162
7236.72509766	4.4473400116
7238.78125	4.46153593063
7240.85742188	4.47375440598
7242.953125	4.48158359528
7245.06835938	4.48389577866
7247.203125	4.48410367966
7249.35742188	4.48457717896
7251.53173828	4.48911237717
7253.72558594	4.49414253235
7255.93896484	4.49744367599
7258.171875	4.51858711243
7260.42431641	4.54946374893
7262.69677734	4.56618928909
7264.98828125	4.58886241913
7267.29980469	4.61021900177
7269.63085938	4.62765598297
7271.98193359	4.645591259
7274.35205078	4.66282129288
7276.7421875	4.67770051956
7279.15185547	4.68649625778
7281.58105469	4.68912792206
7284.02978516	4.68559169769
7286.49804688	4.67473888397
7288.98632813	4.66245269775
7291.49414063	4.64651060104
7294.02148438	4.63408708572
7296.56835938	4.62586641312
7299.13476563	4.62357473373
7301.72119141	4.6192073822
7304.32666016	4.61667203903
7306.95214844	4.61682415009
7309.59716797	4.61863088608
7312.26220703	4.6223654747
7314.94628906	4.62450790405
7317.65039063	4.62733888626
7320.37353516	4.6354265213
7323.11669922	4.65318965912
7325.87988281	4.6744852066
7328.66210938	4.69687795639
7331.46435547	4.71897649765
7334.28564453	4.73616361618
7337.12695313	4.75297880173
7339.98828125	4.76494216919
7342.86865234	4.7720284462
7345.76855469	4.77619934082
7348.68847656	4.77445650101
7351.62792969	4.76893615723
7354.58691406	4.76450109482
7357.56542969	4.76024198532
7360.56396484	4.75905752182
7363.58154297	4.75810670853
7366.61914063	4.76155424118
7369.67626953	4.77037763596
7372.75292969	4.7813706398
7375.84960938	4.79464864731
7378.96533203	4.81180858612
7382.10107422	4.82878398895
7385.25634766	4.84337759018
7388.43115234	4.85664653778
7391.62597656	4.86700391769
7394.83984375	4.87754678726
7398.07373047	4.88559055328
7401.32714844	4.8932056427
7404.60009766	4.9022808075
7407.89257813	4.91405153275
7411.20458984	4.92332839966
7414.53662109	4.92819690704
7417.88818359	4.93131160736
7421.25927734	4.9313378334
7424.64990234	4.93107318878
7428.06005859	4.93071746826
7431.49023438	4.92941522598
7434.93994141	4.9324760437
7438.40917969	4.93822145462
7441.89794922	4.94556856155
7445.40625	4.95416307449
7448.93457031	4.9645152092
7452.48193359	4.97570085526
7456.04931641	4.98864936829
7459.63623047	5.0024023056
7463.24316406	5.01495409012
7466.86914063	5.02456712723
7470.51513672	5.03536939621
7474.18017578	5.04589557648
7477.86523438	5.0563788414
7481.5703125	5.06757450104
7485.29443359	5.08218955994
7489.03857422	5.09397554398
7492.80175781	5.10435342789
7496.58496094	5.11195325851
7500.38769531	5.11787414551
7504.21044922	5.1214132309
7508.05224609	5.12728261948
7511.9140625	5.1334233284
7515.79541016	5.14305639267
7519.69628906	5.15435504913
7523.61669922	5.16079044342
7527.55712891	5.1674118042
7531.51660156	5.17787790298
7535.49609375	5.19009828568
7539.49511719	5.20149278641
7543.51367188	5.21496105194
7547.55175781	5.22699642181
7551.60986328	5.23625516891
7555.6875	5.24749422073
7559.78466797	5.25754642487
7563.90136719	5.26656723022
7568.03759766	5.27666521072
7572.19384766	5.28912353516
7576.36914063	5.30062389374
7580.56445313	5.31169891357
7584.77929688	5.32291078568
7589.01367188	5.33121585846
7593.26806641	5.33925914764
7597.54199219	5.34628820419
7601.83496094	5.3545794487
7606.14794922	5.36434268951
7610.48046875	5.37502241135
7614.83300781	5.38594293594
7619.20458984	5.3974852562
7623.59619141	5.40576839447
7628.00732422	5.3913769722
7632.43798828	5.4231543541
7636.88818359	5.4407582283
7641.35839844	5.45297050476
7645.84814453	5.4640917778
7650.35742188	5.47488498688
7654.88623047	5.48869562149
7659.43457031	5.50192260742
7664.00244141	5.51557826996
7668.59033203	5.52978134155
7673.19775391	5.54293060303
7677.82470703	5.55565595627
7682.47119141	5.56753396988
7687.13720703	5.58020830154
7691.82324219	5.59189891815
7696.52832031	5.60282945633
7701.25341797	5.61432886124
7705.99804688	5.62497758865
7710.76269531	5.63577222824
7715.54638672	5.64773988724
7720.35009766	5.6614356041
7725.17333984	5.67364120483
7730.01611328	5.68556261063
7734.87841797	5.69811868668
7739.76025391	5.70954084396
7744.66210938	5.72186660767
7749.58349609	5.73565292358
7754.52441406	5.74783277512
7759.48486328	5.76223182678
7764.46484375	5.77698326111
7769.46484375	5.7903213501
7774.484375	5.80567121506
7779.5234375	5.8189239502
7784.58203125	5.8321313858
7789.66015625	5.84645223618
7794.7578125	5.8592209816
7799.87548828	5.87273216248
7805.01269531	5.88746738434
7810.16943359	5.90035581589
7815.34570313	5.91384315491
7820.54199219	5.92736387253
7825.75732422	5.94044303894
7830.99267578	5.95349645615
7836.24755859	5.96760797501
7841.52197266	5.98134183884
7846.81591797	5.99577522278
7852.12988281	6.0111489296
7857.46337891	6.02566051483
7862.81640625	6.03974628448
7868.18896484	6.05624008179
7873.58105469	6.07429027557
7878.99267578	6.09065055847
7884.42431641	6.10669803619
7889.87548828	6.12307167053
7895.34619141	6.13781023026
7900.83642578	6.15183782578
7906.34667969	6.16689014435
7911.87597656	6.18155002594
7917.42529297	6.19619464874
7922.99414063	6.21194028854
7928.58251953	6.22694921494
7934.19042969	6.24290275574
7939.81835938	6.258020401
7945.46582031	6.27363538742
7951.1328125	6.28910541534
7956.81933594	6.30503225327
7962.52539063	6.32094621658
7968.25097656	6.3368897438
7973.99658203	6.35335111618
7979.76171875	6.36970758438
7985.54638672	6.38600444794
7991.35058594	6.40205574036
7997.17480469	6.41871452332
8003.01806641	6.43481206894
8008.88134766	6.45190477371
8014.76416016	6.46861886978
8020.66650391	6.48505401611
8026.58837891	6.50086164474
8032.53027344	6.51609277725
8038.49169922	6.53226995468
8044.47216797	6.54968166351
8050.47314453	6.56669044495
8056.49316406	6.58225393295
8062.53271484	6.59955692291
8068.59228516	6.61629629135
8074.67138672	6.6335144043
8080.77001953	6.64976024628
8086.88818359	6.66679048538
8093.02587891	6.68384313583
8099.18359375	6.70124769211
8105.36083984	6.71927928925
