#saved Sat Mar  7 15:45:24 2026
#saving x array=energy, y array=norm
#goethite_fl_clean: goethite_fl_clean
#------------------------------------------
# energy, goethite_fl_clean
 6880.00000,  0.00305682
 6890.23828,  0.00256787
 6900.47607,  0.00233290
 6910.71436,  0.00190159
 6920.95215,  0.00157960
 6931.19043,  0.00120757
 6941.42871,  7.78082e-4
 6951.66650,  4.61607e-4
 6961.90479,  1.36397e-4
 6972.14307, -2.27601e-4
 6982.38086, -5.94455e-4
 6992.61914, -8.78192e-4
 7002.85693, -9.87394e-4
 7013.09521, -0.00107724
 7023.33350, -0.00136388
 7033.57129, -0.00143549
 7043.80957, -0.00136910
 7054.04785, -0.00118590
 7064.28564, -7.17836e-4
 7074.52393,  6.41589e-6
 7084.76172,  0.00136526
 7095.00000,  0.00430216
 7095.25000,  0.00445435
 7095.50000,  0.00456956
 7095.75000,  0.00458000
 7096.00000,  0.00481160
 7096.25000,  0.00488450
 7096.50000,  0.00495970
 7096.75000,  0.00511129
 7097.00000,  0.00511731
 7097.25000,  0.00527758
 7097.50000,  0.00529376
 7097.75000,  0.00548749
 7098.00000,  0.00563027
 7098.25000,  0.00578328
 7098.50000,  0.00600299
 7098.75000,  0.00602444
 7099.00000,  0.00620784
 7099.25000,  0.00636839
 7099.50000,  0.00651906
 7099.75000,  0.00666423
 7100.00000,  0.00671895
 7100.25000,  0.00700679
 7100.50000,  0.00718686
 7100.75000,  0.00748198
 7101.00000,  0.00757969
 7101.25000,  0.00773405
 7101.50000,  0.00791956
 7101.75000,  0.00810782
 7102.00000,  0.00834603
 7102.25000,  0.00854062
 7102.50000,  0.00871447
 7102.75000,  0.00898378
 7103.00000,  0.00910427
 7103.25000,  0.00938151
 7103.50000,  0.00967686
 7103.75000,  0.00989607
 7104.00000,  0.01017428
 7104.25000,  0.01040590
 7104.50000,  0.01064474
 7104.75000,  0.01088558
 7105.00000,  0.01131344
 7105.25000,  0.01157365
 7105.50000,  0.01196268
 7105.75000,  0.01236237
 7106.00000,  0.01261648
 7106.25000,  0.01292626
 7106.50000,  0.01344733
 7106.75000,  0.01382274
 7107.00000,  0.01431614
 7107.25000,  0.01463879
 7107.50000,  0.01538425
 7107.75000,  0.01582280
 7108.00000,  0.01644260
 7108.25000,  0.01714570
 7108.50000,  0.01770542
 7108.75000,  0.01844133
 7109.00000,  0.01943708
 7109.25000,  0.02024289
 7109.50000,  0.02130308
 7109.75000,  0.02269459
 7110.00000,  0.02430071
 7110.25000,  0.02621181
 7110.50000,  0.02869638
 7110.75000,  0.03158719
 7111.00000,  0.03567177
 7111.25000,  0.04009131
 7111.50000,  0.04562800
 7111.75000,  0.05064760
 7112.00000,  0.05688052
 7112.25000,  0.06268168
 7112.50000,  0.06822752
 7112.75000,  0.07286960
 7113.00000,  0.07697190
 7113.25000,  0.07994254
 7113.50000,  0.08235752
 7113.75000,  0.08421419
 7114.00000,  0.08462245
 7114.25000,  0.08386760
 7114.50000,  0.08217081
 7114.75000,  0.08049634
 7115.00000,  0.07976015
 7115.25000,  0.07996287
 7115.50000,  0.08098281
 7115.75000,  0.08273922
 7116.00000,  0.08465300
 7116.25000,  0.08684200
 7116.50000,  0.08923376
 7116.75000,  0.09201718
 7117.00000,  0.09448151
 7117.25000,  0.09746187
 7117.50000,  0.10039814
 7117.75000,  0.10447584
 7118.00000,  0.10844573
 7118.25000,  0.11409792
 7118.50000,  0.11979617
 7118.75000,  0.12820632
 7119.00000,  0.13688457
 7119.25000,  0.14849070
 7119.50000,  0.16043935
 7119.75000,  0.17622535
 7120.00000,  0.19264369
 7120.25000,  0.21357388
 7120.50000,  0.23448601
 7120.75000,  0.26073315
 7121.00000,  0.28711845
 7121.25000,  0.31807925
 7121.50000,  0.34741354
 7121.75000,  0.38280331
 7122.00000,  0.41593203
 7122.25000,  0.44913433
 7122.50000,  0.48134970
 7122.75000,  0.51647706
 7123.00000,  0.54865878
 7123.25000,  0.58019891
 7123.50000,  0.61213059
 7123.75000,  0.64477422
 7124.00000,  0.67671359
 7124.25000,  0.70903267
 7124.50000,  0.74333771
 7124.75000,  0.77773459
 7125.00000,  0.81391947
 7125.25000,  0.84900724
 7125.50000,  0.88584803
 7125.75000,  0.92091024
 7126.00000,  0.95836154
 7126.25000,  0.99070412
 7126.50000,  1.02661392
 7126.75000,  1.05858424
 7127.00000,  1.09173465
 7127.25000,  1.11916586
 7127.50000,  1.14998309
 7127.75000,  1.17685326
 7128.00000,  1.20305871
 7128.25000,  1.22381827
 7128.50000,  1.24426878
 7128.75000,  1.25845634
 7129.00000,  1.27155485
 7129.25000,  1.27960137
 7129.50000,  1.28614090
 7129.75000,  1.28823873
 7130.00000,  1.28985021
 7130.25000,  1.28921007
 7130.50000,  1.28674631
 7130.75000,  1.28511085
 7131.00000,  1.28197940
 7131.25000,  1.27981107
 7131.50000,  1.27627612
 7131.75000,  1.27340080
 7132.00000,  1.27096095
 7132.25000,  1.26908450
 7132.50000,  1.26658547
 7132.75000,  1.26404429
 7133.00000,  1.26076797
 7133.25000,  1.25745613
 7133.50000,  1.25371464
 7133.75000,  1.24905453
 7134.00000,  1.24385645
 7134.25000,  1.23970282
 7134.50000,  1.23428294
 7134.75000,  1.22985186
 7135.00000,  1.22492898
 7135.25000,  1.22079014
 7135.50000,  1.21692011
 7135.75000,  1.21330715
 7136.00000,  1.20960117
 7136.25000,  1.20552494
 7136.50000,  1.20046406
 7136.75000,  1.19699172
 7137.00000,  1.19194361
 7137.25000,  1.18716775
 7137.50000,  1.18135075
 7137.75000,  1.17523821
 7138.00000,  1.16944513
 7138.25000,  1.16233253
 7138.50000,  1.15632782
 7138.75000,  1.14945550
 7139.00000,  1.14322483
 7139.25000,  1.13725799
 7139.50000,  1.13168494
 7139.75000,  1.12637182
 7140.00000,  1.12109539
 7140.25000,  1.11640960
 7140.50000,  1.11206362
 7140.75000,  1.10725686
 7141.00000,  1.10338742
 7141.25000,  1.09982536
 7141.50000,  1.09611358
 7141.75000,  1.09310960
 7142.00000,  1.08995034
 7142.25000,  1.08685108
 7142.50000,  1.08371359
 7142.75000,  1.08122261
 7143.00000,  1.07839417
 7143.25000,  1.07625815
 7143.50000,  1.07435199
 7143.75000,  1.07280519
 7144.00000,  1.07035918
 7144.25000,  1.06876479
 7144.50000,  1.06746667
 7144.75000,  1.06621021
 7145.00000,  1.06502926
 7145.25000,  1.06306961
 7145.50000,  1.06128916
 7145.75000,  1.05961333
 7146.00000,  1.05791242
 7146.25000,  1.05579085
 7146.50000,  1.05280439
 7146.75000,  1.05015716
 7147.00000,  1.04723379
 7147.25000,  1.04365600
 7147.50000,  1.03951088
 7147.75000,  1.03540211
 7148.00000,  1.03153006
 7148.25000,  1.02603170
 7148.50000,  1.02075243
 7148.75000,  1.01511547
 7149.00000,  1.00928440
 7149.25000,  1.00325577
 7149.50000,  0.99714630
 7149.75000,  0.99092889
 7150.00000,  0.98474805
 7150.25000,  0.97879920
 7150.50000,  0.97304601
 7150.75000,  0.96733187
 7151.00000,  0.96197590
 7151.25000,  0.95716973
 7151.50000,  0.95283583
 7151.75000,  0.94849708
 7152.00000,  0.94445979
 7152.25000,  0.94078612
 7152.50000,  0.93710120
 7152.75000,  0.93409534
 7153.00000,  0.93102875
 7153.25000,  0.92777231
 7153.50000,  0.92495511
 7153.75000,  0.92256822
 7154.00000,  0.92029994
 7154.25000,  0.91734360
 7154.50000,  0.91511846
 7154.75000,  0.91259090
 7155.00000,  0.91035315
 7155.25000,  0.90785542
 7155.50000,  0.90554144
 7155.75000,  0.90358285
 7156.00000,  0.90166314
 7156.25000,  0.89961986
 7156.50000,  0.89729304
 7156.75000,  0.89590005
 7157.00000,  0.89397366
 7157.25000,  0.89282633
 7157.50000,  0.89100847
 7157.75000,  0.89059730
 7158.00000,  0.88898084
 7158.25000,  0.88859506
 7158.50000,  0.88806286
 7158.75000,  0.88774745
 7159.00000,  0.88765687
 7159.25000,  0.88783130
 7159.50000,  0.88791370
 7159.75000,  0.88866959
 7160.00000,  0.88881029
 7161.09473,  0.89392619
 7162.20947,  0.90111879
 7163.34326,  0.91210599
 7164.49707,  0.92535874
 7165.67041,  0.94075981
 7166.86377,  0.95769193
 7168.07617,  0.97538548
 7169.30859,  0.99319977
 7170.56006,  1.01105757
 7171.83154,  1.02867605
 7173.12305,  1.04750149
 7174.43359,  1.06536103
 7175.76367,  1.07731595
 7177.11377,  1.08303882
 7178.48340,  1.08510077
 7179.87256,  1.08384680
 7181.28174,  1.08176159
 7182.70996,  1.08011994
 7184.15820,  1.07880630
 7185.62598,  1.07968182
 7187.11328,  1.08022347
 7188.62012,  1.08069545
 7190.14648,  1.08115267
 7191.69287,  1.08095192
 7193.25879,  1.08109210
 7194.84424,  1.08181809
 7196.44922,  1.08191277
 7198.07373,  1.08136762
 7199.71826,  1.07906053
 7201.38184,  1.07587679
 7203.06543,  1.07192204
 7204.76855,  1.06669505
 7206.49170,  1.06085400
 7208.23389,  1.05525140
 7209.99609,  1.05005125
 7211.77783,  1.04592102
 7213.57910,  1.04249662
 7215.39990,  1.04027721
 7217.24023,  1.03897372
 7219.10059,  1.03810559
 7220.98047,  1.03867845
 7222.87988,  1.04066649
 7224.79883,  1.04396959
 7226.73730,  1.04793320
 7228.69580,  1.05181432
 7230.67334,  1.05535485
 7232.67090,  1.05789759
 7234.68799,  1.06091821
 7236.72510,  1.06400998
 7238.78125,  1.06743807
 7240.85742,  1.07037439
 7242.95312,  1.07222026
 7245.06836,  1.07269576
 7247.20312,  1.07264801
 7249.35742,  1.07266529
 7251.53174,  1.07368985
 7253.72559,  1.07483636
 7255.93896,  1.07555278
 7258.17188,  1.08069720
 7260.42432,  1.08825674
 7262.69678,  1.09230269
 7264.98828,  1.09782409
 7267.29980,  1.10301777
 7269.63086,  1.10723758
 7271.98193,  1.11158016
 7274.35205,  1.11574679
 7276.74219,  1.11932896
 7279.15186,  1.12140014
 7281.58105,  1.12194033
 7284.02979,  1.12094859
 7286.49805,  1.11813977
 7288.98633,  1.11497422
 7291.49414,  1.11090028
 7294.02148,  1.10769882
 7296.56836,  1.10553971
 7299.13477,  1.10485142
 7301.72119,  1.10364696
 7304.32666,  1.10289637
 7306.95215,  1.10281194
 7309.59717,  1.10313732
 7312.26221,  1.10394031
 7314.94629,  1.10434720
 7317.65039,  1.10492407
 7320.37354,  1.10680489
 7323.11670,  1.11108649
 7325.87988,  1.11624399
 7328.66211,  1.12167296
 7331.46436,  1.12702797
 7334.28564,  1.13116295
 7337.12695,  1.13520467
 7339.98828,  1.13804112
 7342.86865,  1.13966607
 7345.76855,  1.14056643
 7348.68848,  1.13999792
 7351.62793,  1.13849083
 7354.58691,  1.13725223
 7357.56543,  1.13605639
 7360.56396,  1.13562282
 7363.58154,  1.13524637
 7366.61914,  1.13596077
 7369.67627,  1.13800868
 7372.75293,  1.14059424
 7375.84961,  1.14374606
 7378.96533,  1.14786059
 7382.10107,  1.15192839
 7385.25635,  1.15540405
 7388.43115,  1.15854998
 7391.62598,  1.16097226
 7394.83984,  1.16343970
 7398.07373,  1.16528587
 7401.32715,  1.16702471
 7404.60010,  1.16912508
 7407.89258,  1.17189364
 7411.20459,  1.17404226
 7414.53662,  1.17509568
 7417.88818,  1.17571284
 7421.25928,  1.17556247
 7424.64990,  1.17533898
 7428.06006,  1.17509197
 7431.49023,  1.17460908
 7434.93994,  1.17520831
 7438.40918,  1.17647301
 7441.89795,  1.17813438
 7445.40625,  1.18010449
 7448.93457,  1.18250995
 7452.48193,  1.18512142
 7456.04932,  1.18816954
 7459.63623,  1.19141644
 7463.24316,  1.19436425
 7466.86914,  1.19658170
 7470.51514,  1.19909341
 7474.18018,  1.20153571
 7477.86523,  1.20396643
 7481.57031,  1.20657304
 7485.29443,  1.21002755
 7489.03857,  1.21277889
 7492.80176,  1.21517980
 7496.58496,  1.21689021
 7500.38770,  1.21818295
 7504.21045,  1.21888353
 7508.05225,  1.22016167
 7511.91406,  1.22150622
 7515.79541,  1.22371676
 7519.69629,  1.22633983
 7523.61670,  1.22775480
 7527.55713,  1.22921501
 7531.51660,  1.23162869
 7535.49609,  1.23447690
 7539.49512,  1.23711919
 7543.51367,  1.24027534
 7547.55176,  1.24307489
 7551.60986,  1.24518429
 7555.68750,  1.24778433
 7559.78467,  1.25008887
 7563.90137,  1.25213647
 7568.03760,  1.25445055
 7572.19385,  1.25734960
 7576.36914,  1.26000996
 7580.56445,  1.26256382
 7584.77930,  1.26515073
 7589.01367,  1.26701520
 7593.26807,  1.26881375
 7597.54199,  1.27035964
 7601.83496,  1.27221794
 7606.14795,  1.27444070
 7610.48047,  1.27689005
 7614.83301,  1.27939824
 7619.20459,  1.28205989
 7623.59619,  1.28391159
 7632.43799,  1.28781574
 7636.88818,  1.29197836
 7641.35840,  1.29480172
 7645.84814,  1.29735335
 7650.35742,  1.29982264
 7654.88623,  1.30304002
 7659.43457,  1.30611162
 7664.00244,  1.30928872
 7668.59033,  1.31260077
 7673.19775,  1.31565032
 7677.82471,  1.31859374
 7682.47119,  1.32132592
 7687.13721,  1.32425486
 7691.82324,  1.32693869
 7696.52832,  1.32943295
 7701.25342,  1.33206750
 7705.99805,  1.33448997
 7710.76270,  1.33694773
 7715.54639,  1.33969578
 7720.35010,  1.34287184
 7725.17334,  1.34567711
 7730.01611,  1.34841093
 7734.87842,  1.35130138
 7739.76025,  1.35390945
 7744.66211,  1.35674089
 7749.58350,  1.35993397
 7754.52441,  1.36272737
 7759.48486,  1.36607073
 7764.46484,  1.36950064
 7769.46484,  1.37257880
 7774.48438,  1.37615542
 7779.52344,  1.37921057
 7784.58203,  1.38225357
 7789.66016,  1.38557204
 7794.75781,  1.38850433
 7799.87549,  1.39161997
 7805.01270,  1.39503855
 7810.16943,  1.39799779
 7815.34570,  1.40110479
 7820.54199,  1.40421915
 7825.75732,  1.40722301
 7830.99268,  1.41021955
 7836.24756,  1.41347783
 7841.52197,  1.41664146
 7846.81592,  1.41997782
 7852.12988,  1.42354666
 7857.46338,  1.42690058
 7862.81641,  1.43014790
 7868.18896,  1.43399205
 7873.58105,  1.43822162
 7878.99268,  1.44203081
 7884.42432,  1.44576142
 7889.87549,  1.44957208
 7895.34619,  1.45297596
 7900.83643,  1.45620245
 7906.34668,  1.45968238
 7911.87598,  1.46306400
 7917.42529,  1.46644091
 7922.99414,  1.47009021
 7928.58252,  1.47355573
 7934.19043,  1.47725482
 7939.81836,  1.48074548
 7945.46582,  1.48435869
 7951.13281,  1.48793501
 7956.81934,  1.49162381
 7962.52539,  1.49530850
 7968.25098,  1.49899963
 7973.99658,  1.50281836
 7979.76172,  1.50661015
 7985.54639,  1.51038623
 7991.35059,  1.51410045
 7997.17480,  1.51796452
 8003.01807,  1.52168840
 8008.88135,  1.52565838
 8014.76416,  1.52953346
 8020.66650,  1.53333839
 8026.58838,  1.53698664
 8032.53027,  1.54049087
 8038.49170,  1.54422901
 8044.47217,  1.54827272
 8050.47314,  1.55221545
 8056.49316,  1.55579854
 8062.53271,  1.55981250
 8068.59229,  1.56368563
 8074.67139,  1.56767669
 8080.77002,  1.57142549
 8086.88818,  1.57536810
 8093.02588,  1.57931536
 8099.18359,  1.58334903
 8105.36084,  1.58753745
