# Averaged Data //Vboxsvr/xafsdata/Standards/goethite_sand_001_fl.avg created by SamView
6880.0	0.0188931655139
6890.23828125	0.0190413556993
6900.47607422	0.0194798856974
6910.71435547	0.0198874659836
6920.95214844	0.0200247298926
6931.19042969	0.0201852414757
6941.42871094	0.0204527769238
6951.66650391	0.0205475892872
6961.90478516	0.0206689145416
6972.14306641	0.0209950897843
6982.38085938	0.0212937425822
6992.61914063	0.0215265657753
7002.85693359	0.0218155812472
7013.09521484	0.022154500708
7023.33349609	0.0224743355066
7033.57128906	0.0227416865528
7043.80957031	0.0230442527682
7054.04785156	0.0234319791198
7064.28564453	0.0237553548068
7074.52392578	0.0241683591157
7084.76171875	0.0247539356351
7095.0	0.0257280897349
7095.25	0.0257196687162
7095.5	0.0257800165564
7095.75	0.0258311852813
7096.0	0.0258395317942
7096.25	0.0258418433368
7096.5	0.0259178839624
7096.75	0.0259502790868
7097.0	0.0259186774492
7097.25	0.0260349046439
7097.5	0.0260041709989
7097.75	0.0260397326201
7098.0	0.0261153969914
7098.25	0.0260805860162
7098.5	0.0261250790209
7098.75	0.0261835101992
7099.0	0.0261519365013
7099.25	0.0262751150876
7099.5	0.0262467022985
7099.75	0.026283280924
7100.0	0.0263357441872
7100.25	0.0263651870191
7100.5	0.0264175161719
7100.75	0.0264634061605
7101.0	0.0264880377799
7101.25	0.0266064498574
7101.5	0.0265266019851
7101.75	0.0265959780663
7102.0	0.0266818124801
7102.25	0.0267288107425
7102.5	0.0267200153321
7102.75	0.0267596933991
7103.0	0.026793057099
7103.25	0.0268835760653
7103.5	0.026903450489
7103.75	0.0269152950495
7104.0	0.0270202308893
7104.25	0.0270562339574
7104.5	0.0271369684488
7104.75	0.027145313099
7105.0	0.0272061340511
7105.25	0.0272682812065
7105.5	0.0273111891001
7105.75	0.0273357704282
7106.0	0.0274787675589
7106.25	0.0275245495141
7106.5	0.0275681726635
7106.75	0.0276388376951
7107.0	0.0277363434434
7107.25	0.0277718156576
7107.5	0.0278771724552
7107.75	0.0279458407313
7108.0	0.0280397515744
7108.25	0.0281575638801
7108.5	0.0282139610499
7108.75	0.028323950246
7109.0	0.028457833454
7109.25	0.0285805370659
7109.5	0.0287058055401
7109.75	0.0288812294602
7110.0	0.0290193911642
7110.25	0.0292235221714
7110.5	0.0293932855129
7110.75	0.0296813677996
7111.0	0.0300251767039
7111.25	0.0304734297097
7111.5	0.0310531817377
7111.75	0.0317615903914
7112.0	0.0325436480343
7112.25	0.0336737185717
7112.5	0.0349321328104
7112.75	0.0361861214042
7113.0	0.0371781438589
7113.25	0.0382410399616
7113.5	0.0391322039068
7113.75	0.0400027632713
7114.0	0.0407031029463
7114.25	0.0412949547172
7114.5	0.0414369218051
7114.75	0.0412301048636
7115.0	0.0408082045615
7115.25	0.040208786726
7115.5	0.0398606732488
7115.75	0.0397103950381
7116.0	0.0397338531911
7116.25	0.03996219486
7116.5	0.0402488857508
7116.75	0.0406982190907
7117.0	0.0409940890968
7117.25	0.0414970070124
7117.5	0.0419489219785
7117.75	0.0424783863127
7118.0	0.0429759696126
7118.25	0.0437375605106
7118.5	0.0443377569318
7118.75	0.0451626181602
7119.0	0.0461484268308
7119.25	0.0473280474544
7119.5	0.0488234460354
7119.75	0.0506268180907
7120.0	0.0526835098863
7120.25	0.0553322918713
7120.5	0.0582309141755
7120.75	0.0616218335927
7121.0	0.0656159594655
7121.25	0.0703010931611
7121.5	0.075733050704
7121.75	0.0811198279262
7122.0	0.0877532437444
7122.25	0.0947995260358
7122.5	0.102867878973
7122.75	0.110414914787
7123.0	0.118992999196
7123.25	0.12739340961
7123.5	0.136036530137
7123.75	0.144031882286
7124.0	0.152755886316
7124.25	0.161083161831
7124.5	0.170244604349
7124.75	0.178692623973
7125.0	0.188901245594
7125.25	0.198334380984
7125.5	0.209425419569
7125.75	0.219156190753
7126.0	0.23145660758
7126.25	0.242504581809
7126.5	0.255138188601
7126.75	0.265760838985
7127.0	0.27868437767
7127.25	0.290318131447
7127.5	0.302854597569
7127.75	0.313698500395
7128.0	0.326678037643
7128.25	0.337814569473
7128.5	0.349821150303
7128.75	0.359541743994
7129.0	0.370336800814
7129.25	0.37856733799
7129.5	0.385875254869
7129.75	0.39130911231
7130.0	0.396027415991
7130.25	0.398859173059
7130.5	0.400707781315
7130.75	0.401922047138
7131.0	0.402028560638
7131.25	0.401585698128
7131.5	0.400731891394
7131.75	0.399581819773
7132.0	0.398517847061
7132.25	0.397213965654
7132.5	0.395790040493
7132.75	0.394919335842
7133.0	0.393716841936
7133.25	0.392581015825
7133.5	0.39163222909
7133.75	0.3903388381
7134.0	0.388543903828
7134.25	0.386776119471
7134.5	0.385001957417
7134.75	0.383098244667
7135.0	0.380884796381
7135.25	0.378878116608
7135.5	0.377033114433
7135.75	0.375068217516
7136.0	0.373214334249
7136.25	0.371393859386
7136.5	0.369825005531
7136.75	0.36802431941
7137.0	0.366531074047
7137.25	0.364596873522
7137.5	0.362903475761
7137.75	0.360834926367
7138.0	0.35880959034
7138.25	0.356329023838
7138.5	0.353980094194
7138.75	0.351323693991
7139.0	0.34883081913
7139.25	0.345995396376
7139.5	0.343494772911
7139.75	0.340847432613
7140.0	0.338394075632
7140.25	0.335700958967
7140.5	0.33372169733
7140.75	0.33135548234
7141.0	0.329304635525
7141.25	0.327361673117
7141.5	0.325902163982
7141.75	0.324004292488
7142.0	0.322423815727
7142.25	0.320959627628
7142.5	0.319758594036
7142.75	0.318101584911
7143.0	0.317067593336
7143.25	0.315800905228
7143.5	0.314888447523
7143.75	0.313644468784
7144.0	0.312676757574
7144.25	0.311940342188
7144.5	0.311158567667
7144.75	0.310334324837
7145.0	0.309563875198
7145.25	0.308888286352
7145.5	0.308377802372
7145.75	0.307651400566
7146.0	0.306856542826
7146.25	0.306148707867
7146.5	0.305545628071
7146.75	0.304711282253
7147.0	0.303784102201
7147.25	0.302810311317
7147.5	0.301774382591
7147.75	0.300759404898
7148.0	0.299288034439
7148.25	0.297957986593
7148.5	0.296605408192
7148.75	0.29502004385
7149.0	0.293205201626
7149.25	0.291419863701
7149.5	0.289365708828
7149.75	0.287501841784
7150.0	0.285427749157
7150.25	0.283482670784
7150.5	0.281336426735
7150.75	0.27929982543
7151.0	0.277216881514
7151.25	0.275394141674
7151.5	0.273499280214
7151.75	0.271615535021
7152.0	0.269929170609
7152.25	0.268361657858
7152.5	0.266711860895
7152.75	0.26536872983
7153.0	0.263840079308
7153.25	0.262716978788
7153.5	0.261454701424
7153.75	0.260344862938
7154.0	0.25915107131
7154.25	0.25835236907
7154.5	0.25734013319
7154.75	0.256441861391
7155.0	0.255330860615
7155.25	0.254694968462
7155.5	0.253754377365
7155.75	0.253000229597
7156.0	0.252085834742
7156.25	0.25143417716
7156.5	0.250637829304
7156.75	0.250020563602
7157.0	0.249319434166
7157.25	0.248624965549
7157.5	0.248051181436
7157.75	0.247441217303
7158.0	0.246920093894
7158.25	0.246504679322
7158.5	0.246048539877
7158.75	0.245706483722
7159.0	0.24535125494
7159.25	0.245196580887
7159.5	0.245005428791
7159.75	0.244937479496
7160.0	0.244870319963
7161.09472656	0.245326012373
7162.20947266	0.246915757656
7163.34326172	0.249436825514
7164.49707031	0.25310882926
7165.67041016	0.257476776838
7166.86376953	0.262543350458
7168.07617188	0.268102407455
7169.30859375	0.27400174737
7170.56005859	0.280039280653
7171.83154297	0.286327272654
7173.12304688	0.292450368404
7174.43359375	0.298996269703
7175.76367188	0.30478772521
7177.11376953	0.307946324348
7178.48339844	0.309464514256
7179.87255859	0.309924960136
7181.28173828	0.309559166431
7182.70996094	0.308867186308
7184.15820313	0.308354943991
7185.62597656	0.308090299368
7187.11328125	0.308207929134
7188.62011719	0.308277368546
7190.14648438	0.308312565088
7191.69287109	0.308195084333
7193.25878906	0.307998120785
7194.84423828	0.30784457922
7196.44921875	0.307623177767
7198.07373047	0.307390868664
7199.71826172	0.306614041328
7201.38183594	0.305610448122
7203.06542969	0.304247826338
7204.76855469	0.302653163671
7206.49169922	0.300653934479
7208.23388672	0.298746109009
7209.99609375	0.296791374683
7211.77783203	0.295056939125
7213.57910156	0.293590337038
7215.39990234	0.292449146509
7217.24023438	0.291749089956
7219.10058594	0.291286408901
7220.98046875	0.291049480438
7222.87988281	0.291258692741
7224.79882813	0.291830718517
7226.73730469	0.292816728354
7228.69580078	0.293961524963
7230.67333984	0.294954955578
7232.67089844	0.295621067286
7234.68798828	0.296147733927
7236.72509766	0.296939224005
7238.78125	0.297768622637
7240.85742188	0.298517078161
7242.953125	0.299179792404
7245.06835938	0.299578845501
7247.203125	0.29964479804
7249.35742188	0.299885511398
7251.53173828	0.300157159567
7253.72558594	0.300653010607
7255.93896484	0.301744818687
7258.171875	0.30247297883
7260.42431641	0.30255818367
7262.69677734	0.305193483829
7264.98828125	0.306690514088
7267.29980469	0.308169305325
7269.63085938	0.309444099665
7271.98193359	0.310708194971
7274.35205078	0.311799973249
7276.7421875	0.312608063221
7279.15185547	0.313124597073
7281.58105469	0.313332170248
7284.02978516	0.313007354736
7286.49804688	0.312248706818
7288.98632813	0.311189711094
7291.49414063	0.309950321913
7294.02148438	0.308688223362
7296.56835938	0.307860821486
7299.13476563	0.307244688272
7301.72119141	0.30662766099
7304.32666016	0.306194245815
7306.95214844	0.305921524763
7309.59716797	0.305834889412
7312.26220703	0.305724173784
7314.94628906	0.305858135223
7317.65039063	0.305946409702
7320.37353516	0.306443601847
7323.11669922	0.307151794434
7325.87988281	0.308370858431
7328.66210938	0.309728264809
7331.46435547	0.31079313159
7334.28564453	0.312023460865
7337.12695313	0.312970846891
7339.98828125	0.313613623381
7342.86865234	0.314023584127
7345.76855469	0.314147680998
7348.68847656	0.313860565424
7351.62792969	0.313323587179
7354.58691406	0.312872797251
7357.56542969	0.312514930964
7360.56396484	0.312198460102
7363.58154297	0.312199622393
7366.61914063	0.312357366085
7369.67626953	0.312658518553
7372.75292969	0.313277989626
7375.84960938	0.313985586166
7378.96533203	0.314826697111
7382.10107422	0.315652966499
7385.25634766	0.31664416194
7388.43115234	0.317404687405
7391.62597656	0.317999690771
7394.83984375	0.318461298943
7398.07373047	0.318899095058
7401.32714844	0.319264918566
7404.60009766	0.31971937418
7407.89257813	0.32012757659
7411.20458984	0.320504367352
7414.53662109	0.320641160011
7417.88818359	0.320697307587
7421.25927734	0.320501506329
7424.64990234	0.320368111134
7428.06005859	0.320083409548
7431.49023438	0.319966942072
7434.93994141	0.319883078337
7438.40917969	0.320061832666
7441.89794922	0.320301264524
7445.40625	0.32060238719
7448.93457031	0.321030586958
7452.48193359	0.321703314781
7456.04931641	0.322394013405
7459.63623047	0.323101758957
7463.24316406	0.323640167713
7466.86914063	0.324283748865
7470.51513672	0.324738621712
7474.18017578	0.325273990631
7477.86523438	0.325798302889
7481.5703125	0.326409518719
7485.29443359	0.327037900686
7489.03857422	0.327623546124
7492.80175781	0.328106433153
7496.58496094	0.328581809998
7500.38769531	0.328813225031
7504.21044922	0.328992068768
7508.05224609	0.329338937998
7511.9140625	0.329812884331
7515.79541016	0.330205857754
7519.69628906	0.330668330193
7523.61669922	0.331076622009
7527.55712891	0.331441938877
7531.51660156	0.33194360137
7535.49609375	0.332380384207
7539.49511719	0.333056151867
7543.51367188	0.333751380444
7547.55175781	0.334380507469
7551.60986328	0.334940582514
7555.6875	0.335626721382
7559.78466797	0.336320370436
7563.90136719	0.336780786514
7568.03759766	0.33720639348
7572.19384766	0.337772369385
7576.36914063	0.338335365057
7580.56445313	0.338833630085
7584.77929688	0.339438080788
7589.01367188	0.339996576309
7593.26806641	0.340477466583
7597.54199219	0.340888798237
7601.83496094	0.341369926929
7606.14794922	0.341900676489
7610.48046875	0.342540413141
7614.83300781	0.343211263418
7619.20458984	0.343962222338
7623.59619141	0.344405770302
7628.00732422	0.344889879227
7632.43798828	0.345483779907
7636.88818359	0.3460983634
7641.35839844	0.346719056368
7645.84814453	0.347288280725
7650.35742188	0.347892522812
7654.88623047	0.348691046238
7659.43457031	0.34937748313
7664.00244141	0.350177466869
7668.59033203	0.351048111916
7673.19775391	0.351826488972
7677.82470703	0.352714419365
7682.47119141	0.353359401226
7687.13720703	0.353998422623
7691.82324219	0.354825615883
7696.52832031	0.355630904436
7701.25341797	0.356510162354
7705.99804688	0.357083261013
7710.76269531	0.357744336128
7715.54638672	0.35839882493
7720.35009766	0.359054654837
7725.17333984	0.359821856022
7730.01611328	0.360598146915
7734.87841797	0.361307293177
7739.76025391	0.361919671297
7744.66210938	0.362672001123
7749.58349609	0.363527327776
7754.52441406	0.364473581314
7759.48486328	0.365454941988
7764.46484375	0.366303443909
7769.46484375	0.367025315762
7774.484375	0.367957621813
7779.5234375	0.368957608938
7784.58203125	0.36970436573
7789.66015625	0.370537400246
7794.7578125	0.371232688427
7799.87548828	0.372001677752
7805.01269531	0.372876495123
7810.16943359	0.37385520339
7815.34570313	0.374719887972
7820.54199219	0.375689834356
7825.75732422	0.376680314541
7830.99267578	0.377544313669
7836.24755859	0.378421962261
7841.52197266	0.379204034805
7846.81591797	0.380009919405
7852.12988281	0.380995810032
7857.46337891	0.381937146187
7862.81640625	0.382955908775
7868.18896484	0.383942484856
7873.58105469	0.385015547276
7878.99267578	0.386042147875
7884.42431641	0.387100577354
7889.87548828	0.388311356306
7895.34619141	0.389681786299
7900.83642578	0.390597730875
7906.34667969	0.391464680433
7911.87597656	0.392414927483
7917.42529297	0.393647104502
7922.99414063	0.394801944494
7928.58251953	0.395815998316
7934.19042969	0.396743416786
7939.81835938	0.397703230381
7945.46582031	0.398907959461
7951.1328125	0.399931818247
7956.81933594	0.400989383459
7962.52539063	0.402164965868
7968.25097656	0.403397023678
7973.99658203	0.404680967331
7979.76171875	0.405681312084
7985.54638672	0.407039940357
7991.35058594	0.408203601837
7997.17480469	0.409120976925
8003.01806641	0.410553663969
8008.88134766	0.411518871784
8014.76416016	0.412285745144
8020.66650391	0.413241922855
8026.58837891	0.413988232613
8032.53027344	0.414849996567
8038.49169922	0.415835678577
8044.47216797	0.416949123144
8050.47314453	0.418118178844
8056.49316406	0.419413566589
8062.53271484	0.42030403018
8068.59228516	0.421027094126
8074.67138672	0.422215223312
8080.77001953	0.423403888941
8086.88818359	0.424816071987
8093.02587891	0.426233440638
8099.18359375	0.42728382349
8105.36083984	0.428366690874
