# Averaged Data //Vboxsvr/xafsdata/Standards/GRCL_002_fl.avg created by SamView
6880.0	0.663969039917
6890.23828125	0.670673847198
6900.47607422	0.678090810776
6910.71435547	0.684867978096
6920.95214844	0.69477045536
6931.19042969	0.703067600727
6941.42871094	0.712208807468
6951.66650391	0.717298269272
6961.90478516	0.726619362831
6972.14306641	0.735789120197
6982.38085938	0.744329094887
6992.61914063	0.758878469467
7002.85693359	0.771624207497
7013.09521484	0.787582755089
7023.33349609	0.802980899811
7033.57128906	0.82392770052
7043.80957031	0.845756828785
7054.04785156	0.886716187
7064.28564453	0.924218535423
7074.52392578	0.98126667738
7084.76171875	1.06703341007
7095.0	1.21985936165
7095.25	1.23016476631
7095.5	1.23734271526
7095.75	1.24792134762
7096.0	1.25196480751
7096.25	1.26170670986
7096.5	1.26566767693
7096.75	1.26571643353
7097.0	1.2667593956
7097.25	1.26257145405
7097.5	1.27029681206
7097.75	1.27404308319
7098.0	1.28508079052
7098.25	1.28906536102
7098.5	1.29593896866
7098.75	1.30528843403
7099.0	1.31235659122
7099.25	1.32178914547
7099.5	1.32953810692
7099.75	1.33676469326
7100.0	1.34458994865
7100.25	1.35126817226
7100.5	1.36324155331
7100.75	1.37002205849
7101.0	1.38136947155
7101.25	1.3890235424
7101.5	1.40309476852
7101.75	1.40960216522
7102.0	1.42163681984
7102.25	1.43034207821
7102.5	1.44279301167
7102.75	1.45410275459
7103.0	1.46692728996
7103.25	1.47937560081
7103.5	1.48817563057
7103.75	1.507386446
7104.0	1.52208006382
7104.25	1.5359569788
7104.5	1.55531048775
7104.75	1.57571983337
7105.0	1.59561932087
7105.25	1.61015927792
7105.5	1.6307708025
7105.75	1.65209925175
7106.0	1.67399084568
7106.25	1.69397425652
7106.5	1.72130477428
7106.75	1.74521279335
7107.0	1.76907289028
7107.25	1.79974114895
7107.5	1.83044660091
7107.75	1.86550223827
7108.0	1.89913392067
7108.25	1.93975973129
7108.5	1.98485577106
7108.75	2.04358577728
7109.0	2.10328626633
7109.25	2.17511582375
7109.5	2.26829719543
7109.75	2.36201882362
7110.0	2.45196676254
7110.25	2.56871080399
7110.5	2.68457603455
7110.75	2.80955767632
7111.0	2.91044020653
7111.25	3.02679800987
7111.5	3.13076543808
7111.75	3.23858761787
7112.0	3.33905363083
7112.25	3.44065475464
7112.5	3.54130268097
7112.75	3.6327214241
7113.0	3.7164285183
7113.25	3.8174533844
7113.5	3.90547895432
7113.75	4.01033210754
7114.0	4.11422586441
7114.25	4.22788858414
7114.5	4.35885906219
7114.75	4.50999164581
7115.0	4.71618652344
7115.25	4.96007728577
7115.5	5.25263023376
7115.75	5.5784907341
7116.0	5.99641513824
7116.25	6.46376848221
7116.5	7.04884672165
7116.75	7.65842008591
7117.0	8.44277477264
7117.25	9.28997898102
7117.5	10.2784099579
7117.75	11.2278680801
7118.0	12.4361095428
7118.25	13.6343355179
7118.5	15.0169696808
7118.75	16.2741298676
7119.0	17.826335907
7119.25	19.2302055359
7119.5	20.8427639008
7119.75	22.1645736694
7120.0	23.7092761993
7120.25	25.054933548
7120.5	26.491809845
7120.75	27.6978206635
7121.0	29.1025505066
7121.25	30.3636760712
7121.5	31.7652187347
7121.75	33.0506134033
7122.0	34.5742912292
7122.25	36.0300598145
7122.5	37.5181655884
7122.75	38.9228935242
7123.0	40.5218582153
7123.25	41.9618492126
7123.5	43.3938674927
7123.75	44.7158737183
7124.0	46.1160125732
7124.25	47.3275527954
7124.5	48.4670333862
7124.75	49.4780426025
7125.0	50.5250778198
7125.25	51.4769172668
7125.5	52.2616271973
7125.75	53.0266532898
7126.0	53.8557167053
7126.25	54.6131401062
7126.5	55.2507858276
7126.75	55.944694519
7127.0	56.5932807922
7127.25	57.2647094727
7127.5	57.8275184631
7127.75	58.4280052185
7128.0	58.8220214844
7128.25	59.2401695251
7128.5	59.4642486572
7128.75	59.6809082031
7129.0	59.6694107056
7129.25	59.506187439
7129.5	59.2048110962
7129.75	58.7683792114
7130.0	58.2362785339
7130.25	57.7644577026
7130.5	57.2306480408
7130.75	56.6211242676
7131.0	55.9803199768
7131.25	55.3212471008
7131.5	54.814250946
7131.75	54.1429290771
7132.0	53.5634689331
7132.25	52.9720306396
7132.5	52.4819984436
7132.75	51.8998680115
7133.0	51.4195785522
7133.25	50.9431877136
7133.5	50.5343284607
7133.75	50.085811615
7134.0	49.8214111328
7134.25	49.5617485046
7134.5	49.3199768066
7134.75	49.0552444458
7135.0	48.8481521606
7135.25	48.5292053223
7135.5	48.48670578
7135.75	48.3338890076
7136.0	48.2741203308
7136.25	48.1719856262
7136.5	48.1001625061
7136.75	48.0076637268
7137.0	47.96352005
7137.25	47.9361877441
7137.5	47.8930625916
7137.75	47.88123703
7138.0	47.850818634
7138.25	47.8268127441
7138.5	47.8120994568
7138.75	47.7744216919
7139.0	47.7395515442
7139.25	47.7753334045
7139.5	47.7388534546
7139.75	47.6842002869
7140.0	47.6425895691
7140.25	47.6009178162
7140.5	47.5885391235
7140.75	47.5177192688
7141.0	47.4209861755
7141.25	47.3154029846
7141.5	47.1727981567
7141.75	47.053768158
7142.0	46.898563385
7142.25	46.7457275391
7142.5	46.5605621338
7142.75	46.4219207764
7143.0	46.2479934692
7143.25	46.066619873
7143.5	45.8785133362
7143.75	45.7229881287
7144.0	45.4891433716
7144.25	45.3385925293
7144.5	45.1512985229
7144.75	44.8460044861
7145.0	44.6457672119
7145.25	44.4498596191
7145.5	44.2723999023
7145.75	44.0301933289
7146.0	43.7975692749
7146.25	43.5814781189
7146.5	43.354019165
7146.75	43.1746635437
7147.0	42.9543457031
7147.25	42.8103408813
7147.5	42.6398429871
7147.75	42.462474823
7148.0	42.2822303772
7148.25	42.1121864319
7148.5	41.891204834
7148.75	41.7572937012
7149.0	41.6002044678
7149.25	41.4525871277
7149.5	41.3552780151
7149.75	41.2576217651
7150.0	41.0466575623
7150.25	40.9662437439
7150.5	40.8402633667
7150.75	40.7425346375
7151.0	40.6422691345
7151.25	40.5751457214
7151.5	40.5029296875
7151.75	40.4252166748
7152.0	40.3343582153
7152.25	40.2466850281
7152.5	40.1688270569
7152.75	40.1465263367
7153.0	40.0801086426
7153.25	39.9803619385
7153.5	39.9488830566
7153.75	39.9519424438
7154.0	39.9717674255
7154.25	40.0390853882
7154.5	40.0485115051
7154.75	40.1201972961
7155.0	40.1338119507
7155.25	40.1355895996
7155.5	40.1602096558
7155.75	40.1983451843
7156.0	40.2311897278
7156.25	40.2775154114
7156.5	40.3271064758
7156.75	40.3787612915
7157.0	40.4277763367
7157.25	40.4834709167
7157.5	40.5592956543
7157.75	40.6258850098
7158.0	40.6605148315
7158.25	40.7070579529
7158.5	40.8056945801
7158.75	40.9005889893
7159.0	41.0000915527
7159.25	41.1018676758
7159.5	41.1912918091
7159.75	41.3249359131
7160.0	41.4366989136
7161.09472656	42.082447052
7162.20947266	42.7480659485
7163.34326172	43.5268249512
7164.49707031	44.2705001831
7165.67041016	45.0404891968
7166.86376953	45.807384491
7168.07617188	46.5409622192
7169.30859375	47.3055534363
7170.56005859	47.9747695923
7171.83154297	48.4993400574
7173.12304688	48.8301620483
7174.43359375	49.0170593262
7175.76367188	48.9835586548
7177.11376953	48.8211517334
7178.48339844	48.556186676
7179.87255859	48.2532691956
7181.28173828	47.9694595337
7182.70996094	47.7132072449
7184.15820313	47.5315856934
7185.62597656	47.3203659058
7187.11328125	47.1286125183
7188.62011719	47.0168151855
7190.14648438	46.9412918091
7191.69287109	46.8901901245
7193.25878906	46.839302063
7194.84423828	46.8157615662
7196.44921875	46.8256492615
7198.07373047	46.8104057312
7199.71826172	46.7753372192
7201.38183594	46.7362976074
7203.06542969	46.7171325684
7204.76855469	46.6847419739
7206.49169922	46.6958389282
7208.23388672	46.7173194885
7209.99609375	46.7421340942
7211.77783203	46.7180938721
7213.57910156	46.6457862854
7215.39990234	46.5748023987
7217.24023438	46.4159355164
7219.10058594	46.2298965454
7220.98046875	45.9488716125
7222.87988281	45.7843322754
7224.79882813	45.6594581604
7226.73730469	45.6587333679
7228.69580078	45.7543869019
7230.67333984	45.9308738708
7232.67089844	46.2571640015
7234.68798828	46.6704406738
7236.72509766	47.1137962341
7238.78125	47.4581069946
7240.85742188	47.7858123779
7242.953125	48.0446548462
7245.06835938	48.2702903748
7247.203125	48.4147033691
7249.35742188	48.5791931152
7251.53173828	48.7373161316
7253.72558594	48.734992981
7255.93896484	48.9214286804
7258.171875	49.0291786194
7260.42431641	49.038734436
7262.69677734	48.9287910461
7264.98828125	48.9267883301
7267.29980469	48.7871627808
7269.63085938	48.5786247253
7271.98193359	48.3658866882
7274.35205078	48.1804656982
7276.7421875	48.0182800293
7279.15185547	47.8892097473
7281.58105469	47.8801116943
7284.02978516	47.9477272034
7286.49804688	48.0193710327
7288.98632813	48.1136398315
7291.49414063	48.2443466187
7294.02148438	48.3143119812
7296.56835938	48.3977622986
7299.13476563	48.4878044128
7301.72119141	48.6014442444
7304.32666016	48.7060966492
7306.95214844	48.80078125
7309.59716797	48.9361228943
7312.26220703	48.9835205078
7314.94628906	49.0481452942
7317.65039063	49.1372413635
7320.37353516	49.1786155701
7323.11669922	49.1503677368
7325.87988281	49.0966148376
7328.66210938	49.0190238953
7331.46435547	48.9858093262
7334.28564453	49.0211257935
7337.12695313	49.1060180664
7339.98828125	49.2100296021
7342.86865234	49.3003196716
7345.76855469	49.3506088257
7348.68847656	49.3926734924
7351.62792969	49.4434242249
7354.58691406	49.5109710693
7357.56542969	49.5928497314
7360.56396484	49.7166404724
7363.58154297	49.8390045166
7366.61914063	49.9672851563
7369.67626953	50.1189918518
7372.75292969	50.2708854675
7375.84960938	50.3809127808
7378.96533203	50.4278030396
7382.10107422	50.4778366089
7385.25634766	50.4011192322
7388.43115234	50.3503379822
7391.62597656	50.2541313171
7394.83984375	50.1798553467
7398.07373047	50.1394538879
7401.32714844	50.1568756104
7404.60009766	50.2716331482
7407.89257813	50.3598098755
7411.20458984	50.3985671997
7414.53662109	50.430557251
7417.88818359	50.4714241028
7421.25927734	50.5159492493
7424.64990234	50.5450935364
7428.06005859	50.6380996704
7431.49023438	50.7623634338
7434.93994141	50.8930892944
7438.40917969	51.0059585571
7441.89794922	51.1366043091
7445.40625	51.2385292053
7448.93457031	51.4756698608
7452.48193359	51.545539856
7456.04931641	51.5690612793
7459.63623047	51.5781707764
7463.24316406	51.6154136658
7466.86914063	51.6125411987
7470.51513672	51.5796661377
7474.18017578	51.6133842468
7477.86523438	51.6506881714
7481.5703125	51.7460517883
7485.29443359	51.8499183655
7489.03857422	51.8971443176
7492.80175781	51.9118537903
7496.58496094	52.0570526123
7500.38769531	52.1226043701
7504.21044922	52.1909713745
7508.05224609	52.2767944336
7511.9140625	52.3538169861
7515.79541016	52.5150909424
7519.69628906	52.599521637
7523.61669922	52.7260513306
7527.55712891	52.8428153992
7531.51660156	52.9318695068
7535.49609375	52.9582481384
7539.49511719	52.9978866577
7543.51367188	53.0278358459
7547.55175781	53.0675849915
7551.60986328	53.1027145386
7555.6875	53.1794204712
7559.78466797	53.2652816772
7563.90136719	53.3209533691
7568.03759766	53.3879165649
7572.19384766	53.4576759338
7576.36914063	53.5270423889
7580.56445313	53.66588974
7584.77929688	53.7263031006
7589.01367188	53.8480873108
7593.26806641	53.926902771
7597.54199219	53.951133728
7601.83496094	54.0573730469
7606.14794922	54.2232818604
7610.48046875	54.3161506653
7614.83300781	54.3865890503
7619.20458984	54.544757843
7623.59619141	54.691028595
7628.00732422	54.8189582825
7632.43798828	54.8311195374
7636.88818359	54.8205566406
7641.35839844	54.8990249634
7645.84814453	54.9530563354
7650.35742188	55.0204811096
7654.88623047	55.0924682617
7659.43457031	55.2502288818
7664.00244141	55.3429260254
7668.59033203	55.418712616
7673.19775391	55.5362281799
7677.82470703	55.6622467041
7682.47119141	55.7605781555
7687.13720703	55.8705940247
7691.82324219	55.9181022644
7696.52832031	56.0156135559
7701.25341797	56.1560096741
7705.99804688	56.2446784973
7710.76269531	56.3050613403
7715.54638672	56.353805542
7720.35009766	56.5142097473
7725.17333984	56.5621757507
7730.01611328	56.6253089905
7734.87841797	56.7001190186
7739.76025391	56.8000946045
7744.66210938	56.8969268799
7749.58349609	57.0100822449
7754.52441406	57.1191368103
7759.48486328	57.2129516602
7764.46484375	57.3111763
7769.46484375	57.4494895935
7774.484375	57.5598182678
7779.5234375	57.708984375
7784.58203125	57.713973999
7789.66015625	57.7693481445
7794.7578125	57.9179458618
7799.87548828	58.0107917786
7805.01269531	58.1468582153
7810.16943359	58.2783851624
7815.34570313	58.4286346436
7820.54199219	58.5074234009
7825.75732422	58.6134300232
7830.99267578	58.708240509
7836.24755859	58.8457145691
7841.52197266	58.9576148987
7846.81591797	59.0231399536
7852.12988281	59.1396522522
7857.46337891	59.3051719666
7862.81640625	59.3782081604
7868.18896484	59.5026245117
7873.58105469	59.6160087585
7878.99267578	59.7791481018
7884.42431641	59.8906211853
7889.87548828	60.0290031433
7895.34619141	60.1454238892
7900.83642578	60.2673568726
7906.34667969	60.3997077942
7911.87597656	60.5274505615
7917.42529297	60.6604537964
7922.99414063	60.7017021179
7928.58251953	60.8662872314
7934.19042969	61.0027198792
7939.81835938	61.1627502441
7945.46582031	61.1870040894
7951.1328125	61.3602790833
7956.81933594	61.5047721863
7962.52539063	61.5922203064
7968.25097656	61.7286758423
7973.99658203	61.8820762634
7979.76171875	62.007900238
7985.54638672	62.1748123169
7991.35058594	62.3126487732
7997.17480469	62.4124832153
8003.01806641	62.4514427185
8008.88134766	62.5470924377
8014.76416016	62.6637954712
8020.66650391	62.85131073
8026.58837891	63.1159706116
8032.53027344	63.2530975342
8038.49169922	63.3949203491
8044.47216797	63.6298408508
8050.47314453	63.5729827881
8056.49316406	63.7029304504
8062.53271484	63.7807426453
8068.59228516	63.8936500549
8074.67138672	64.0390167236
8080.77001953	64.2325668335
8086.88818359	64.3383789063
8093.02587891	64.4916229248
8099.18359375	64.6562652588
8105.36083984	64.7704086304
