# Averaged Data //Vboxsvr/xafsdata/Standards/GRCO3_003_fl.avg created by SamView
6880.0	0.56791472435
6890.23828125	0.57127737999
6900.47607422	0.576957166195
6910.71435547	0.587374925613
6920.95214844	0.592801392078
6931.19042969	0.598967194557
6941.42871094	0.604812204838
6951.66650391	0.610766708851
6961.90478516	0.617237925529
6972.14306641	0.625350654125
6982.38085938	0.63395190239
6992.61914063	0.644926309586
7002.85693359	0.656176745892
7013.09521484	0.666142642498
7023.33349609	0.677523851395
7033.57128906	0.69005972147
7043.80957031	0.702884316444
7054.04785156	0.723148524761
7064.28564453	0.744156837463
7074.52392578	0.772394299507
7084.76171875	0.812990069389
7095.0	0.884598076344
7095.25	0.889165818691
7095.5	0.890713632107
7095.75	0.89192533493
7096.0	0.894166469574
7096.25	0.897718012333
7096.5	0.900705337524
7096.75	0.90413159132
7097.0	0.905961751938
7097.25	0.908443808556
7097.5	0.911685347557
7097.75	0.914910376072
7098.0	0.919605374336
7098.25	0.921241044998
7098.5	0.92531555891
7098.75	0.929714798927
7099.0	0.932034134865
7099.25	0.934818744659
7099.5	0.939125478268
7099.75	0.944825589657
7100.0	0.947590708733
7100.25	0.95196467638
7100.5	0.956412494183
7100.75	0.960524320602
7101.0	0.965337395668
7101.25	0.969307482243
7101.5	0.972276031971
7101.75	0.978292167187
7102.0	0.982510209084
7102.25	0.989366531372
7102.5	0.991953849792
7102.75	0.999059915543
7103.0	1.00488424301
7103.25	1.00884151459
7103.5	1.01651000977
7103.75	1.02109336853
7104.0	1.02902007103
7104.25	1.03581881523
7104.5	1.0427583456
7104.75	1.05020582676
7105.0	1.05844318867
7105.25	1.06711864471
7105.5	1.07457649708
7105.75	1.08311927319
7106.0	1.09620654583
7106.25	1.10615634918
7106.5	1.11794197559
7106.75	1.12993597984
7107.0	1.14115834236
7107.25	1.1577848196
7107.5	1.17353892326
7107.75	1.18844163418
7108.0	1.20374429226
7108.25	1.22717440128
7108.5	1.25030148029
7108.75	1.2780175209
7109.0	1.30671739578
7109.25	1.34772372246
7109.5	1.38177907467
7109.75	1.42641913891
7110.0	1.46471428871
7110.25	1.52500426769
7110.5	1.58327746391
7110.75	1.65567290783
7111.0	1.71884274483
7111.25	1.79885494709
7111.5	1.87263131142
7111.75	1.94701433182
7112.0	2.01332688332
7112.25	2.09084320068
7112.5	2.15524196625
7112.75	2.21545004845
7113.0	2.2629635334
7113.25	2.30754637718
7113.5	2.34220147133
7113.75	2.37221026421
7114.0	2.40595650673
7114.25	2.44483280182
7114.5	2.48400473595
7114.75	2.53099131584
7115.0	2.59331989288
7115.25	2.66880297661
7115.5	2.77776527405
7115.75	2.89470601082
7116.0	3.04392385483
7116.25	3.21183800697
7116.5	3.41485762596
7116.75	3.61433625221
7117.0	3.86905956268
7117.25	4.13658809662
7117.5	4.45136451721
7117.75	4.73585271835
7118.0	5.10936594009
7118.25	5.48884677887
7118.5	5.92197418213
7118.75	6.32791137695
7119.0	6.85833692551
7119.25	7.371986866
7119.5	7.97990274429
7119.75	8.54302883148
7120.0	9.24694633484
7120.25	9.92728900909
7120.5	10.7059936523
7120.75	11.399679184
7121.0	12.2452735901
7121.25	13.0286445618
7121.5	13.8766021729
7121.75	14.6520233154
7122.0	15.5226202011
7122.25	16.3125629425
7122.5	17.1031608582
7122.75	17.8212032318
7123.0	18.5829753876
7123.25	19.2453479767
7123.5	19.882314682
7123.75	20.4393692017
7124.0	21.0418491364
7124.25	21.5615959167
7124.5	22.0589542389
7124.75	22.504201889
7125.0	22.9435043335
7125.25	23.3531513214
7125.5	23.7080307007
7125.75	24.0483474731
7126.0	24.3843517303
7126.25	24.7107315063
7126.5	24.9800491333
7126.75	25.2757759094
7127.0	25.5410747528
7127.25	25.7984867096
7127.5	26.0093803406
7127.75	26.2557258606
7128.0	26.4534721375
7128.25	26.6533145905
7128.5	26.8199863434
7128.75	26.9781856537
7129.0	27.1084575653
7129.25	27.2296237946
7129.5	27.3208885193
7129.75	27.3812637329
7130.0	27.4328804016
7130.25	27.4581890106
7130.5	27.4803276062
7130.75	27.4746513367
7131.0	27.494562149
7131.25	27.488368988
7131.5	27.4849147797
7131.75	27.4678096771
7132.0	27.4532337189
7132.25	27.4284076691
7132.5	27.3982543945
7132.75	27.3633861542
7133.0	27.3114299774
7133.25	27.2730770111
7133.5	27.2221660614
7133.75	27.144618988
7134.0	27.091966629
7134.25	27.0118217468
7134.5	26.9637680054
7134.75	26.863658905
7135.0	26.7901477814
7135.25	26.7146167755
7135.5	26.6262722015
7135.75	26.5211029053
7136.0	26.4327106476
7136.25	26.3274555206
7136.5	26.2089290619
7136.75	26.0895729065
7137.0	25.9666900635
7137.25	25.8334236145
7137.5	25.6925125122
7137.75	25.5282402039
7138.0	25.370552063
7138.25	25.2170257568
7138.5	25.0464248657
7138.75	24.8693351746
7139.0	24.6790924072
7139.25	24.5103340149
7139.5	24.3464832306
7139.75	24.1815547943
7140.0	24.0097923279
7140.25	23.8496551514
7140.5	23.6858253479
7140.75	23.5457630157
7141.0	23.3848152161
7141.25	23.2528781891
7141.5	23.1119155884
7141.75	22.9771995544
7142.0	22.8237781525
7142.25	22.7092857361
7142.5	22.5877571106
7142.75	22.4724273682
7143.0	22.3505821228
7143.25	22.235458374
7143.5	22.1265449524
7143.75	22.0261459351
7144.0	21.9099349976
7144.25	21.8284015656
7144.5	21.7198753357
7144.75	21.6435508728
7145.0	21.5479202271
7145.25	21.4763641357
7145.5	21.3818054199
7145.75	21.2966957092
7146.0	21.2118797302
7146.25	21.1428184509
7146.5	21.0540275574
7146.75	20.9756088257
7147.0	20.8883094788
7147.25	20.8158760071
7147.5	20.7281646729
7147.75	20.6465644836
7148.0	20.5649852753
7148.25	20.4896717072
7148.5	20.4092712402
7148.75	20.3262195587
7149.0	20.2640762329
7149.25	20.2087974548
7149.5	20.1381645203
7149.75	20.0714492798
7150.0	20.0155773163
7150.25	19.956615448
7150.5	19.9030838013
7150.75	19.8426303864
7151.0	19.8054275513
7151.25	19.75639534
7151.5	19.7171039581
7151.75	19.6806316376
7152.0	19.6474666595
7152.25	19.6259250641
7152.5	19.6125583649
7152.75	19.5809745789
7153.0	19.5559120178
7153.25	19.5426883698
7153.5	19.5296134949
7153.75	19.5156097412
7154.0	19.5019626617
7154.25	19.4823551178
7154.5	19.4951038361
7154.75	19.4888820648
7155.0	19.5047664642
7155.25	19.5157527924
7155.5	19.5234260559
7155.75	19.5377902985
7156.0	19.5549945831
7156.25	19.5705318451
7156.5	19.597328186
7156.75	19.6278152466
7157.0	19.6581420898
7157.25	19.6880569458
7157.5	19.7126903534
7157.75	19.750164032
7158.0	19.7848052979
7158.25	19.808423996
7158.5	19.8371238708
7158.75	19.885931015
7159.0	19.9133434296
7159.25	19.9474525452
7159.5	19.9835891724
7159.75	20.0115203857
7160.0	20.0511569977
7161.09472656	20.2138023376
7162.20947266	20.4167823792
7163.34326172	20.6438961029
7164.49707031	20.9104232788
7165.67041016	21.2037296295
7166.86376953	21.5217113495
7168.07617188	21.8503646851
7169.30859375	22.1586933136
7170.56005859	22.4601764679
7171.83154297	22.7234954834
7173.12304688	22.9410991669
7174.43359375	23.0930671692
7175.76367188	23.1787776947
7177.11376953	23.2105693817
7178.48339844	23.2300128937
7179.87255859	23.2469520569
7181.28173828	23.2543430328
7182.70996094	23.258058548
7184.15820313	23.2569599152
7185.62597656	23.239648819
7187.11328125	23.2062911987
7188.62011719	23.155210495
7190.14648438	23.0948257446
7191.69287109	23.00806427
7193.25878906	22.9035720825
7194.84423828	22.7979736328
7196.44921875	22.7050209045
7198.07373047	22.6239433289
7199.71826172	22.5730705261
7201.38183594	22.524061203
7203.06542969	22.4902515411
7204.76855469	22.44830513
7206.49169922	22.4196357727
7208.23388672	22.3719291687
7209.99609375	22.3336334229
7211.77783203	22.2985782623
7213.57910156	22.2814865112
7215.39990234	22.2943706512
7217.24023438	22.3167247772
7219.10058594	22.3424930573
7220.98046875	22.3641147614
7222.87988281	22.3790035248
7224.79882813	22.4030761719
7226.73730469	22.4410514832
7228.69580078	22.4763011932
7230.67333984	22.5047569275
7232.67089844	22.5388755798
7234.68798828	22.5665416718
7236.72509766	22.6029109955
7238.78125	22.6418457031
7240.85742188	22.6796302795
7242.953125	22.7313251495
7245.06835938	22.7860507965
7247.203125	22.8580760956
7249.35742188	22.9454154968
7251.53173828	23.0246429443
7253.72558594	23.1881103516
7255.93896484	23.2095375061
7258.171875	23.2558689117
7260.42431641	23.3520927429
7262.69677734	23.411819458
7264.98828125	23.3353252411
7267.29980469	23.3319740295
7269.63085938	23.3080921173
7271.98193359	23.2974910736
7274.35205078	23.2882156372
7276.7421875	23.2950496674
7279.15185547	23.3099079132
7281.58105469	23.3346252441
7284.02978516	23.3480358124
7286.49804688	23.3340930939
7288.98632813	23.3156280518
7291.49414063	23.2895755768
7294.02148438	23.2604789734
7296.56835938	23.2452907562
7299.13476563	23.2349452972
7301.72119141	23.2230834961
7304.32666016	23.2303066254
7306.95214844	23.2477779388
7309.59716797	23.2386760712
7312.26220703	23.2579917908
7314.94628906	23.2861499786
7317.65039063	23.3127403259
7320.37353516	23.3527793884
7323.11669922	23.4077739716
7325.87988281	23.4553375244
7328.66210938	23.4847450256
7331.46435547	23.5076522827
7334.28564453	23.5375919342
7337.12695313	23.5750713348
7339.98828125	23.6113777161
7342.86865234	23.644613266
7345.76855469	23.6671047211
7348.68847656	23.6873703003
7351.62792969	23.6916561127
7354.58691406	23.6925430298
7357.56542969	23.7006072998
7360.56396484	23.7025775909
7363.58154297	23.7147521973
7366.61914063	23.7294940948
7369.67626953	23.7530097961
7372.75292969	23.7637081146
7375.84960938	23.7959518433
7378.96533203	23.8271217346
7382.10107422	23.856004715
7385.25634766	23.8872947693
7388.43115234	23.917219162
7391.62597656	23.9383449554
7394.83984375	23.9504261017
7398.07373047	23.9690532684
7401.32714844	23.9963760376
7404.60009766	24.0237579346
7407.89257813	24.0531826019
7411.20458984	24.0780200958
7414.53662109	24.097574234
7417.88818359	24.1105041504
7421.25927734	24.1217288971
7424.64990234	24.1261405945
7428.06005859	24.1411304474
7431.49023438	24.1598453522
7434.93994141	24.163898468
7438.40917969	24.1745204926
7441.89794922	24.2022476196
7445.40625	24.2428913116
7448.93457031	24.2781162262
7452.48193359	24.3168926239
7456.04931641	24.3469924927
7459.63623047	24.3837966919
7463.24316406	24.4123249054
7466.86914063	24.4385261536
7470.51513672	24.4657974243
7474.18017578	24.4907474518
7477.86523438	24.5113677979
7481.5703125	24.5372619629
7485.29443359	24.5615158081
7489.03857422	24.592382431
7492.80175781	24.6155834198
7496.58496094	24.6476612091
7500.38769531	24.6800918579
7504.21044922	24.7023887634
7508.05224609	24.7291755676
7511.9140625	24.7613945007
7515.79541016	24.7982387543
7519.69628906	24.8269519806
7523.61669922	24.8667736053
7527.55712891	24.8953380585
7531.51660156	24.9213027954
7535.49609375	24.9598140717
7539.49511719	24.9892711639
7543.51367188	25.0117816925
7547.55175781	25.0442314148
7551.60986328	25.0794582367
7555.6875	25.1209964752
7559.78466797	25.1402645111
7563.90136719	25.1786251068
7568.03759766	25.2111129761
7572.19384766	25.2504940033
7576.36914063	25.275932312
7580.56445313	25.306016922
7584.77929688	25.3440551758
7589.01367188	25.371931076
7593.26806641	25.4052352905
7597.54199219	25.449256897
7601.83496094	25.4904079437
7606.14794922	25.5302391052
7610.48046875	25.567358017
7614.83300781	25.6042518616
7619.20458984	25.6343326569
7623.59619141	25.6301441193
7628.00732422	25.7436237335
7632.43798828	25.7271556854
7636.88818359	25.795539856
7641.35839844	25.8189048767
7645.84814453	25.8493709564
7650.35742188	25.9031562805
7654.88623047	25.9396591187
7659.43457031	25.9680671692
7664.00244141	25.9977588654
7668.59033203	26.0344009399
7673.19775391	26.0831317902
7677.82470703	26.1300506592
7682.47119141	26.177942276
7687.13720703	26.2334098816
7691.82324219	26.2620563507
7696.52832031	26.2995910645
7701.25341797	26.3369522095
7705.99804688	26.38712883
7710.76269531	26.4464588165
7715.54638672	26.4781074524
7720.35009766	26.5066280365
7725.17333984	26.5474491119
7730.01611328	26.5940036774
7734.87841797	26.6441173553
7739.76025391	26.6816940308
7744.66210938	26.7172718048
7749.58349609	26.7542114258
7754.52441406	26.8075809479
7759.48486328	26.8637866974
7764.46484375	26.8948345184
7769.46484375	26.9406585693
7774.484375	26.9891624451
7779.5234375	27.029050827
7784.58203125	27.0827064514
7789.66015625	27.1111736298
7794.7578125	27.1448669434
7799.87548828	27.1924743652
7805.01269531	27.2449436188
7810.16943359	27.2904071808
7815.34570313	27.3347663879
7820.54199219	27.3800239563
7825.75732422	27.4241218567
7830.99267578	27.479637146
7836.24755859	27.5310745239
7841.52197266	27.5688610077
7846.81591797	27.6181640625
7852.12988281	27.6626281738
7857.46337891	27.701417923
7862.81640625	27.7498054504
7868.18896484	27.8150138855
7873.58105469	27.8793048859
7878.99267578	27.9192619324
7884.42431641	27.9614067078
7889.87548828	28.0122184753
7895.34619141	28.0691623688
7900.83642578	28.1150226593
7906.34667969	28.1720924377
7911.87597656	28.2285652161
7917.42529297	28.2805671692
7922.99414063	28.3258533478
7928.58251953	28.3798160553
7934.19042969	28.4298419952
7939.81835938	28.4787521362
7945.46582031	28.5366020203
7951.1328125	28.6080532074
7956.81933594	28.6698188782
7962.52539063	28.7256622314
7968.25097656	28.7712650299
7973.99658203	28.813117981
7979.76171875	28.8900794983
7985.54638672	28.9476928711
7991.35058594	28.9818267822
7997.17480469	29.0298976898
8003.01806641	29.087020874
8008.88134766	29.1439037323
8014.76416016	29.2018451691
8020.66650391	29.2539176941
8026.58837891	29.3081302643
8032.53027344	29.3673229218
8038.49169922	29.4375572205
8044.47216797	29.4844665527
8050.47314453	29.5227355957
8056.49316406	29.5948467255
8062.53271484	29.6651420593
8068.59228516	29.7339458466
8074.67138672	29.7918300629
8080.77001953	29.8489837646
8086.88818359	29.9063606262
8093.02587891	29.9716053009
8099.18359375	30.0280017853
8105.36083984	30.0892925262
