# Averaged Data //Vboxsvr/xafsdata/Standards/GRSO4_002_fl.avg created by SamView
6880.0	0.464784890413
6890.23828125	0.470455765724
6900.47607422	0.473902285099
6910.71435547	0.478462040424
6920.95214844	0.483366191387
6931.19042969	0.489178061485
6941.42871094	0.494953274727
6951.66650391	0.497544854879
6961.90478516	0.504095613956
6972.14306641	0.510288119316
6982.38085938	0.52081656456
6992.61914063	0.529998242855
7002.85693359	0.539042174816
7013.09521484	0.550676167011
7023.33349609	0.564017653465
7033.57128906	0.579149365425
7043.80957031	0.596653580666
7054.04785156	0.622137010098
7064.28564453	0.655491232872
7074.52392578	0.702710747719
7084.76171875	0.778978705406
7095.0	0.920016586781
7095.25	0.925281345844
7095.5	0.929748594761
7095.75	0.933993935585
7096.0	0.938143968582
7096.25	0.944334387779
7096.5	0.949675798416
7096.75	0.954015791416
7097.0	0.961672842503
7097.25	0.967706084251
7097.5	0.973884165287
7097.75	0.978910267353
7098.0	0.984698712826
7098.25	0.992044746876
7098.5	0.998372137547
7098.75	1.00459229946
7099.0	1.01434290409
7099.25	1.01957142353
7099.5	1.02795946598
7099.75	1.03446984291
7100.0	1.04171621799
7100.25	1.05026328564
7100.5	1.05922424793
7100.75	1.06617486477
7101.0	1.07865142822
7101.25	1.08757007122
7101.5	1.09706950188
7101.75	1.10569107533
7102.0	1.1155397892
7102.25	1.12774145603
7102.5	1.136292696
7102.75	1.1471401453
7103.0	1.16051840782
7103.25	1.17020583153
7103.5	1.18284130096
7103.75	1.19590854645
7104.0	1.20905172825
7104.25	1.22351706028
7104.5	1.23877382278
7104.75	1.25186610222
7105.0	1.2661383152
7105.25	1.28528392315
7105.5	1.30131471157
7105.75	1.32085728645
7106.0	1.34036958218
7106.25	1.362652421
7106.5	1.3811519146
7106.75	1.40339207649
7107.0	1.42723023891
7107.25	1.45996916294
7107.5	1.48603701591
7107.75	1.52000796795
7108.0	1.55570816994
7108.25	1.59842061996
7108.5	1.64033257961
7108.75	1.69555878639
7109.0	1.75507903099
7109.25	1.83221244812
7109.5	1.90578746796
7109.75	2.0016913414
7110.0	2.09403944016
7110.25	2.20453214645
7110.5	2.30039596558
7110.75	2.40959668159
7111.0	2.5077650547
7111.25	2.60437846184
7111.5	2.68190383911
7111.75	2.76809263229
7112.0	2.84230709076
7112.25	2.92159891129
7112.5	2.99270296097
7112.75	3.0723092556
7113.0	3.15298366547
7113.25	3.23821926117
7113.5	3.32168221474
7113.75	3.43239164352
7114.0	3.5496301651
7114.25	3.69003176689
7114.5	3.85688710213
7114.75	4.05760955811
7115.0	4.31343412399
7115.25	4.58726739883
7115.5	4.93547153473
7115.75	5.34122991562
7116.0	5.84086847305
7116.25	6.35463190079
7116.5	7.01334810257
7116.75	7.71879005432
7117.0	8.57748222351
7117.25	9.36618232727
7117.5	10.3958730698
7117.75	11.4162855148
7118.0	12.5532312393
7118.25	13.6162166595
7118.5	14.8858566284
7118.75	16.0436725616
7119.0	17.3070755005
7119.25	18.3630046844
7119.5	19.5774040222
7119.75	20.6048183441
7120.0	21.6596355438
7120.25	22.5389537811
7120.5	23.4813404083
7120.75	24.2926864624
7121.0	25.1697235107
7121.25	25.8934669495
7121.5	26.753868103
7121.75	27.5236091614
7122.0	28.3263816833
7122.25	29.0533752441
7122.5	29.8902702332
7122.75	30.6324100494
7123.0	31.3978404999
7123.25	32.0833358765
7123.5	32.852809906
7123.75	33.5625610352
7124.0	34.2162780762
7124.25	34.8218040466
7124.5	35.4150543213
7124.75	35.9429168701
7125.0	36.4065551758
7125.25	36.8239402771
7125.5	37.1955375671
7125.75	37.5591888428
7126.0	37.8726348877
7126.25	38.1663589478
7126.5	38.4617538452
7126.75	38.7336997986
7127.0	38.9575080872
7127.25	39.1972923279
7127.5	39.4056472778
7127.75	39.5625267029
7128.0	39.6749610901
7128.25	39.7331771851
7128.5	39.7348136902
7128.75	39.6575469971
7129.0	39.5498542786
7129.25	39.3458938599
7129.5	39.1182823181
7129.75	38.8000907898
7130.0	38.5401191711
7130.25	38.1876335144
7130.5	37.8559989929
7130.75	37.4969787598
7131.0	37.2078399658
7131.25	36.8594665527
7131.5	36.5627365112
7131.75	36.2535209656
7132.0	35.9941215515
7132.25	35.7144203186
7132.5	35.4624137878
7132.75	35.2228088379
7133.0	34.9971961975
7133.25	34.7791824341
7133.5	34.5809326172
7133.75	34.3979988098
7134.0	34.2397232056
7134.25	34.0847930908
7134.5	33.9272727966
7134.75	33.8087654114
7135.0	33.7086029053
7135.25	33.6002044678
7135.5	33.531036377
7135.75	33.4519577026
7136.0	33.3942565918
7136.25	33.3314666748
7136.5	33.2877197266
7136.75	33.2530860901
7137.0	33.2232513428
7137.25	33.2170829773
7137.5	33.2051200867
7137.75	33.2148475647
7138.0	33.1901817322
7138.25	33.1940879822
7138.5	33.2089424133
7138.75	33.2001800537
7139.0	33.2109413147
7139.25	33.2109451294
7139.5	33.2190704346
7139.75	33.2040138245
7140.0	33.1973419189
7140.25	33.1846046448
7140.5	33.1408195496
7140.75	33.1091194153
7141.0	33.0668640137
7141.25	32.9863433838
7141.5	32.8990364075
7141.75	32.8515663147
7142.0	32.7562561035
7142.25	32.6599845886
7142.5	32.5457572937
7142.75	32.4444389343
7143.0	32.3565483093
7143.25	32.2425003052
7143.5	32.1332740784
7143.75	32.0315437317
7144.0	31.9122238159
7144.25	31.8069210052
7144.5	31.6772594452
7144.75	31.5785274506
7145.0	31.4624156952
7145.25	31.3464679718
7145.5	31.2227554321
7145.75	31.1064529419
7146.0	30.9978466034
7146.25	30.8833847046
7146.5	30.7741641998
7146.75	30.68409729
7147.0	30.5653591156
7147.25	30.4805603027
7147.5	30.3821773529
7147.75	30.3222312927
7148.0	30.2159137726
7148.25	30.1318492889
7148.5	30.0753250122
7148.75	30.0035419464
7149.0	29.9159297943
7149.25	29.8555393219
7149.5	29.7940483093
7149.75	29.7336349487
7150.0	29.6919384003
7150.25	29.64802742
7150.5	29.5994205475
7150.75	29.5600891113
7151.0	29.5217437744
7151.25	29.4872646332
7151.5	29.4639816284
7151.75	29.4452533722
7152.0	29.4288368225
7152.25	29.4051856995
7152.5	29.3880996704
7152.75	29.3968791962
7153.0	29.3836345673
7153.25	29.3902320862
7153.5	29.4019184113
7153.75	29.4082298279
7154.0	29.4259548187
7154.25	29.4368476868
7154.5	29.4535484314
7154.75	29.4730854034
7155.0	29.5001773834
7155.25	29.5524196625
7155.5	29.5755901337
7155.75	29.6191768646
7156.0	29.6674385071
7156.25	29.7281131744
7156.5	29.7797527313
7156.75	29.8310947418
7157.0	29.8920555115
7157.25	29.9499664307
7157.5	30.0079650879
7157.75	30.0733261108
7158.0	30.1442050934
7158.25	30.2245101929
7158.5	30.2749080658
7158.75	30.3547267914
7159.0	30.4258327484
7159.25	30.4947605133
7159.5	30.5802612305
7159.75	30.6425647736
7160.0	30.714422226
7161.09472656	31.0941696167
7162.20947266	31.4945526123
7163.34326172	31.8907909393
7164.49707031	32.2912940979
7165.67041016	32.6847572327
7166.86376953	33.0744361877
7168.07617188	33.4695358276
7169.30859375	33.8452568054
7170.56005859	34.1947860718
7171.83154297	34.4478492737
7173.12304688	34.5757141113
7174.43359375	34.6084251404
7175.76367188	34.5740737915
7177.11376953	34.4330711365
7178.48339844	34.2761802673
7179.87255859	34.107509613
7181.28173828	33.9427604675
7182.70996094	33.8125419617
7184.15820313	33.6876754761
7185.62597656	33.5756835938
7187.11328125	33.47996521
7188.62011719	33.4105567932
7190.14648438	33.3648033142
7191.69287109	33.3400344849
7193.25878906	33.3449554443
7194.84423828	33.3737068176
7196.44921875	33.3957977295
7198.07373047	33.4170417786
7199.71826172	33.4327545166
7201.38183594	33.4311637878
7203.06542969	33.4344177246
7204.76855469	33.4277000427
7206.49169922	33.4268341064
7208.23388672	33.4406013489
7209.99609375	33.4704246521
7211.77783203	33.4824829102
7213.57910156	33.4735221863
7215.39990234	33.4471054077
7217.24023438	33.3742446899
7219.10058594	33.2865409851
7220.98046875	33.1931228638
7222.87988281	33.1068916321
7224.79882813	33.0684356689
7226.73730469	33.0913505554
7228.69580078	33.1912155151
7230.67333984	33.3503341675
7232.67089844	33.5484657288
7234.68798828	33.7826690674
7236.72509766	34.0069313049
7238.78125	34.2131958008
7240.85742188	34.3951568604
7242.953125	34.5395851135
7245.06835938	34.6527290344
7247.203125	34.7568740845
7249.35742188	34.8450241089
7251.53173828	34.9656600952
7253.72558594	35.0061531067
7255.93896484	35.0898399353
7258.171875	35.1684455872
7260.42431641	35.1643486023
7262.69677734	35.089515686
7264.98828125	35.0734939575
7267.29980469	34.9890861511
7269.63085938	34.878616333
7271.98193359	34.7663612366
7274.35205078	34.6810073853
7276.7421875	34.6276893616
7279.15185547	34.6001052856
7281.58105469	34.618976593
7284.02978516	34.6734542847
7286.49804688	34.7298431396
7288.98632813	34.7986946106
7291.49414063	34.8564300537
7294.02148438	34.916179657
7296.56835938	34.98853302
7299.13476563	35.0668296814
7301.72119141	35.1331672668
7304.32666016	35.2120132446
7306.95214844	35.2991828918
7309.59716797	35.3790855408
7312.26220703	35.4348754883
7314.94628906	35.5081596375
7317.65039063	35.5579910278
7320.37353516	35.5658187866
7323.11669922	35.5471725464
7325.87988281	35.5046234131
7328.66210938	35.4752616882
7331.46435547	35.4895935059
7334.28564453	35.544342041
7337.12695313	35.6227531433
7339.98828125	35.682559967
7342.86865234	35.7295913696
7345.76855469	35.7863426208
7348.68847656	35.8348693848
7351.62792969	35.8984069824
7354.58691406	35.9680290222
7357.56542969	36.0521202087
7360.56396484	36.155620575
7363.58154297	36.2282218933
7366.61914063	36.3218154907
7369.67626953	36.4126358032
7372.75292969	36.4933395386
7375.84960938	36.5675621033
7378.96533203	36.6184539795
7382.10107422	36.630607605
7385.25634766	36.620136261
7388.43115234	36.5838813782
7391.62597656	36.5556678772
7394.83984375	36.5172576904
7398.07373047	36.5171012878
7401.32714844	36.567035675
7404.60009766	36.6195373535
7407.89257813	36.6797561646
7411.20458984	36.7282409668
7414.53662109	36.7622451782
7417.88818359	36.8083839417
7421.25927734	36.8645133972
7424.64990234	36.946144104
7428.06005859	37.0231628418
7431.49023438	37.1126976013
7434.93994141	37.2216491699
7438.40917969	37.3174438477
7441.89794922	37.4226646423
7445.40625	37.5137062073
7448.93457031	37.6169624329
7452.48193359	37.6684341431
7456.04931641	37.6879425049
7459.63623047	37.7061729431
7463.24316406	37.7261123657
7466.86914063	37.7416801453
7470.51513672	37.7695426941
7474.18017578	37.7972831726
7477.86523438	37.8656654358
7481.5703125	37.9485816956
7485.29443359	38.0101623535
7489.03857422	38.0879974365
7492.80175781	38.1472434998
7496.58496094	38.1791267395
7500.38769531	38.2274665833
7504.21044922	38.3004760742
7508.05224609	38.3689994812
7511.9140625	38.432598114
7515.79541016	38.5206565857
7519.69628906	38.6296653748
7523.61669922	38.7279891968
7527.55712891	38.8092575073
7531.51660156	38.8703155518
7535.49609375	38.9275398254
7539.49511719	38.9851722717
7543.51367188	39.0172424316
7547.55175781	39.0639801025
7551.60986328	39.1219482422
7555.6875	39.1852149963
7559.78466797	39.2414550781
7563.90136719	39.2969512939
7568.03759766	39.3575172424
7572.19384766	39.42918396
7576.36914063	39.5075035095
7580.56445313	39.5865287781
7584.77929688	39.6615638733
7589.01367188	39.7347145081
7593.26806641	39.8394813538
7597.54199219	39.9286956787
7601.83496094	40.0261459351
7606.14794922	40.1209411621
7610.48046875	40.1972503662
7614.83300781	40.2926940918
7619.20458984	40.3632888794
7623.59619141	40.4647407532
7628.00732422	40.3812599182
7632.43798828	40.5636405945
7636.88818359	40.5924720764
7641.35839844	40.6649665833
7645.84814453	40.7517776489
7650.35742188	40.8097381592
7654.88623047	40.890663147
7659.43457031	40.9551467896
7664.00244141	41.051574707
7668.59033203	41.1171112061
7673.19775391	41.2122001648
7677.82470703	41.2859268188
7682.47119141	41.3684234619
7687.13720703	41.4663391113
7691.82324219	41.5716629028
7696.52832031	41.6455116272
7701.25341797	41.7323226929
7705.99804688	41.8448562622
7710.76269531	41.8767356873
7715.54638672	41.9829406738
7720.35009766	42.0583000183
7725.17333984	42.1472969055
7730.01611328	42.2239990234
7734.87841797	42.3210639954
7739.76025391	42.3983230591
7744.66210938	42.4756622314
7749.58349609	42.5502128601
7754.52441406	42.6432418823
7759.48486328	42.7369537354
7764.46484375	42.8226852417
7769.46484375	42.9056053162
7774.484375	42.9992294312
7779.5234375	43.0891876221
7784.58203125	43.2009544373
7789.66015625	43.3006324768
7794.7578125	43.3790130615
7799.87548828	43.4727554321
7805.01269531	43.5682601929
7810.16943359	43.6611938477
7815.34570313	43.7418022156
7820.54199219	43.8304710388
7825.75732422	43.9228439331
7830.99267578	44.0459823608
7836.24755859	44.1572875977
7841.52197266	44.2467002869
7846.81591797	44.3494338989
7852.12988281	44.455745697
7857.46337891	44.5156097412
7862.81640625	44.6361923218
7868.18896484	44.7389221191
7873.58105469	44.8351554871
7878.99267578	44.9317817688
7884.42431641	45.0374183655
7889.87548828	45.1133613586
7895.34619141	45.2275390625
7900.83642578	45.3313484192
7906.34667969	45.4456176758
7911.87597656	45.5489349365
7917.42529297	45.6639633179
7922.99414063	45.7806129456
7928.58251953	45.8726348877
7934.19042969	45.9653739929
7939.81835938	46.1048927307
7945.46582031	46.1865196228
7951.1328125	46.2769775391
7956.81933594	46.3675003052
7962.52539063	46.5076217651
7968.25097656	46.6014442444
7973.99658203	46.7147445679
7979.76171875	46.8367424011
7985.54638672	46.9316444397
7991.35058594	47.0474700928
7997.17480469	47.1541404724
8003.01806641	47.2520103455
8008.88134766	47.3872756958
8014.76416016	47.4974861145
8020.66650391	47.5871200562
8026.58837891	47.7062683105
8032.53027344	47.8404541016
8038.49169922	47.9512329102
8044.47216797	48.0655708313
8050.47314453	48.1773872375
8056.49316406	48.2777137756
8062.53271484	48.3917236328
8068.59228516	48.5165481567
8074.67138672	48.6109199524
8080.77001953	48.7281723022
8086.88818359	48.8422279358
8093.02587891	48.9503822327
8099.18359375	49.0625038147
8105.36083984	49.1679458618
