# Averaged Data //Vboxsvr/xafsdata/Standards/hematite_sand_001_fl.avg created by SamView
6880.0	0.0311179682612
6890.23828125	0.0313752107322
6900.47607422	0.0314481407404
6910.71435547	0.0320133492351
6920.95214844	0.03252151981
6931.19042969	0.0330285541713
6941.42871094	0.0331938825548
6951.66650391	0.0334631316364
6961.90478516	0.0336879044771
6972.14306641	0.0340597853065
6982.38085938	0.0343949832022
6992.61914063	0.0347493030131
7002.85693359	0.0351844057441
7013.09521484	0.0356783717871
7023.33349609	0.0361815951765
7033.57128906	0.0365870036185
7043.80957031	0.0369316898286
7054.04785156	0.0373284444213
7064.28564453	0.0378975644708
7074.52392578	0.0385796315968
7084.76171875	0.0393312387168
7095.0	0.0405938886106
7095.25	0.0406428948045
7095.5	0.0406413115561
7095.75	0.0407184660435
7096.0	0.040770329535
7096.25	0.0407641641796
7096.5	0.0408376604319
7096.75	0.0408525615931
7097.0	0.0409052670002
7097.25	0.0409689769149
7097.5	0.0409373901784
7097.75	0.040959186852
7098.0	0.0409925282001
7098.25	0.0411019138992
7098.5	0.0411250032485
7098.75	0.0411258786917
7099.0	0.0412271730602
7099.25	0.0412897542119
7099.5	0.0412408262491
7099.75	0.0413254238665
7100.0	0.0414068885148
7100.25	0.0414272584021
7100.5	0.0414298586547
7100.75	0.0415322594345
7101.0	0.041572663933
7101.25	0.0416101291776
7101.5	0.041662927717
7101.75	0.0417533069849
7102.0	0.0418188944459
7102.25	0.0418419837952
7102.5	0.0418669655919
7102.75	0.0419586375356
7103.0	0.0420633479953
7103.25	0.042049407959
7103.5	0.0421575829387
7103.75	0.0422077216208
7104.0	0.0422988608479
7104.25	0.0423069596291
7104.5	0.0423736274242
7104.75	0.0424270294607
7105.0	0.0425688028336
7105.25	0.0426684729755
7105.5	0.0427543856204
7105.75	0.0427999831736
7106.0	0.0429112240672
7106.25	0.0429354868829
7106.5	0.0431208796799
7106.75	0.0431227572262
7107.0	0.0432435423136
7107.25	0.0433447882533
7107.5	0.043541084975
7107.75	0.0436308719218
7108.0	0.043721370399
7108.25	0.0439005680382
7108.5	0.044016443193
7108.75	0.0442609116435
7109.0	0.0443161278963
7109.25	0.0444758683443
7109.5	0.0447654575109
7109.75	0.0449600964785
7110.0	0.0452753901482
7110.25	0.0455016717315
7110.5	0.0458243265748
7110.75	0.0461974553764
7111.0	0.0466198958457
7111.25	0.0473415888846
7111.5	0.0480420291424
7111.75	0.049162954092
7112.0	0.0502024255693
7112.25	0.0517329461873
7112.5	0.0532733947039
7112.75	0.0552003420889
7113.0	0.0569533184171
7113.25	0.058742556721
7113.5	0.0602856315672
7113.75	0.0614774003625
7114.0	0.0626166239381
7114.25	0.0635757371783
7114.5	0.0642536357045
7114.75	0.0645962879062
7115.0	0.0644181892276
7115.25	0.0640363618731
7115.5	0.0637034326792
7115.75	0.0634674578905
7116.0	0.0634661093354
7116.25	0.0637562796474
7116.5	0.0639817714691
7116.75	0.0643344894052
7117.0	0.0647884458303
7117.25	0.0652699694037
7117.5	0.0659468770027
7117.75	0.066412165761
7118.0	0.067090138793
7118.25	0.0677328184247
7118.5	0.0686667636037
7118.75	0.0696729719639
7119.0	0.0711138397455
7119.25	0.0727649629116
7119.5	0.074802428484
7119.75	0.0771277472377
7120.0	0.0803085416555
7120.25	0.0836387872696
7120.5	0.0882573649287
7120.75	0.0927855521441
7121.0	0.0992726460099
7121.25	0.105529539287
7121.5	0.113794021308
7121.75	0.121926613152
7122.0	0.132815808058
7122.25	0.143109351397
7122.5	0.155899867415
7122.75	0.16758236289
7123.0	0.181328013539
7123.25	0.193763628602
7123.5	0.206552669406
7123.75	0.217798039317
7124.0	0.230325385928
7124.25	0.241264551878
7124.5	0.25307238102
7124.75	0.263902753592
7125.0	0.276774525642
7125.25	0.288449108601
7125.5	0.301812469959
7125.75	0.314895629883
7126.0	0.329829096794
7126.25	0.344054460526
7126.5	0.359082728624
7126.75	0.373734027147
7127.0	0.388587325811
7127.25	0.403639137745
7127.5	0.417217463255
7127.75	0.430791139603
7128.0	0.444296807051
7128.25	0.457025498152
7128.5	0.467947661877
7128.75	0.479291141033
7129.0	0.489329248667
7129.25	0.498100459576
7129.5	0.505089759827
7129.75	0.511222720146
7130.0	0.515582978725
7130.25	0.519004702568
7130.5	0.521557509899
7130.75	0.523986637592
7131.0	0.526047050953
7131.25	0.52853012085
7131.5	0.530738294125
7131.75	0.534018993378
7132.0	0.536782681942
7132.25	0.540181398392
7132.5	0.543285012245
7132.75	0.54658639431
7133.0	0.548701345921
7133.25	0.549931764603
7133.5	0.5503718853
7133.75	0.549629092216
7134.0	0.548180520535
7134.25	0.545862734318
7134.5	0.542684912682
7134.75	0.538423240185
7135.0	0.533952236176
7135.25	0.529370546341
7135.5	0.525060713291
7135.75	0.520127415657
7136.0	0.515774250031
7136.25	0.511446893215
7136.5	0.507761657238
7136.75	0.504127979279
7137.0	0.501017570496
7137.25	0.49773234129
7137.5	0.494994550943
7137.75	0.491378486156
7138.0	0.488592356443
7138.25	0.485234737396
7138.5	0.481882244349
7138.75	0.478014945984
7139.0	0.473943471909
7139.25	0.470002532005
7139.5	0.466085106134
7139.75	0.461912065744
7140.0	0.457777768373
7140.25	0.453798025846
7140.5	0.449774295092
7140.75	0.446084588766
7141.0	0.44213488698
7141.25	0.438913136721
7141.5	0.435341417789
7141.75	0.432223260403
7142.0	0.429110556841
7142.25	0.426222503185
7142.5	0.423784852028
7142.75	0.421672254801
7143.0	0.419142216444
7143.25	0.417659908533
7143.5	0.41603949666
7143.75	0.414715796709
7144.0	0.41358217597
7144.25	0.41277295351
7144.5	0.412211984396
7144.75	0.411832273006
7145.0	0.411380648613
7145.25	0.411456793547
7145.5	0.411322921515
7145.75	0.411609232426
7146.0	0.41182166338
7146.25	0.411835193634
7146.5	0.411798834801
7146.75	0.412076175213
7147.0	0.411812335253
7147.25	0.411637753248
7147.5	0.411200046539
7147.75	0.410418838263
7148.0	0.409459203482
7148.25	0.408498048782
7148.5	0.407034188509
7148.75	0.405627608299
7149.0	0.403688579798
7149.25	0.402044743299
7149.5	0.399903476238
7149.75	0.397986084223
7150.0	0.39584556222
7150.25	0.393699735403
7150.5	0.391564100981
7150.75	0.389805197716
7151.0	0.387594491243
7151.25	0.385663360357
7151.5	0.383583337069
7151.75	0.381686866283
7152.0	0.379789620638
7152.25	0.37820905447
7152.5	0.376399934292
7152.75	0.374646425247
7153.0	0.373199790716
7153.25	0.371710389853
7153.5	0.369942545891
7153.75	0.368537575006
7154.0	0.36719879508
7154.25	0.365623891354
7154.5	0.364303350449
7154.75	0.362860798836
7155.0	0.36120223999
7155.25	0.3600025177
7155.5	0.358272105455
7155.75	0.356887102127
7156.0	0.355696111917
7156.25	0.354347527027
7156.5	0.352731764317
7156.75	0.351547569036
7157.0	0.350284308195
7157.25	0.349089980125
7157.5	0.347830802202
7157.75	0.346872121096
7158.0	0.345747262239
7158.25	0.34486296773
7158.5	0.344131410122
7158.75	0.343279749155
7159.0	0.342886835337
7159.25	0.342420101166
7159.5	0.341794788837
7159.75	0.341579705477
7160.0	0.341362714767
7161.09472656	0.341407209635
7162.20947266	0.342685997486
7163.34326172	0.345017433167
7164.49707031	0.34822127223
7165.67041016	0.351873666048
7166.86376953	0.356224983931
7168.07617188	0.361225992441
7169.30859375	0.367862045765
7170.56005859	0.375936418772
7171.83154297	0.385752618313
7173.12304688	0.396806776524
7174.43359375	0.408145844936
7175.76367188	0.417591333389
7177.11376953	0.423709005117
7178.48339844	0.428002238274
7179.87255859	0.430513501167
7181.28173828	0.43211004138
7182.70996094	0.432260155678
7184.15820313	0.431831717491
7185.62597656	0.430950522423
7187.11328125	0.430183768272
7188.62011719	0.429474800825
7190.14648438	0.428831547499
7191.69287109	0.427431434393
7193.25878906	0.425298243761
7194.84423828	0.422852307558
7196.44921875	0.420174092054
7198.07373047	0.417685508728
7199.71826172	0.415067344904
7201.38183594	0.412223398685
7203.06542969	0.409216105938
7204.76855469	0.406487196684
7206.49169922	0.404413282871
7208.23388672	0.402972728014
7209.99609375	0.402257442474
7211.77783203	0.401882588863
7213.57910156	0.402115672827
7215.39990234	0.4030148983
7217.24023438	0.404612600803
7219.10058594	0.406667888165
7220.98046875	0.408773601055
7222.87988281	0.410238206387
7224.79882813	0.411214768887
7226.73730469	0.411378264427
7228.69580078	0.411068707705
7230.67333984	0.410576343536
7232.67089844	0.410060346127
7234.68798828	0.410247445107
7236.72509766	0.411253482103
7238.78125	0.412212908268
7240.85742188	0.412821054459
7242.953125	0.412993967533
7245.06835938	0.412154972553
7247.203125	0.410843551159
7249.35742188	0.410069853067
7251.53173828	0.409805625677
7253.72558594	0.410411655903
7255.93896484	0.411591619253
7258.171875	0.413979023695
7260.42431641	0.416857659817
7262.69677734	0.419592887163
7264.98828125	0.422229319811
7267.29980469	0.424371689558
7269.63085938	0.425884515047
7271.98193359	0.426582872868
7274.35205078	0.427687346935
7276.7421875	0.429611593485
7279.15185547	0.431687891483
7281.58105469	0.432944685221
7284.02978516	0.43362981081
7286.49804688	0.433830916882
7288.98632813	0.433608740568
7291.49414063	0.432973563671
7294.02148438	0.432242840528
7296.56835938	0.431443750858
7299.13476563	0.430276364088
7301.72119141	0.428795993328
7304.32666016	0.427023679018
7306.95214844	0.42516720295
7309.59716797	0.423497378826
7312.26220703	0.421811133623
7314.94628906	0.420052558184
7317.65039063	0.418555080891
7320.37353516	0.41779217124
7323.11669922	0.418257147074
7325.87988281	0.419939279556
7328.66210938	0.422569096088
7331.46435547	0.425672441721
7334.28564453	0.428977757692
7337.12695313	0.432244330645
7339.98828125	0.435055822134
7342.86865234	0.437286615372
7345.76855469	0.438646346331
7348.68847656	0.439055562019
7351.62792969	0.438703089952
7354.58691406	0.438239336014
7357.56542969	0.437923491001
7360.56396484	0.437276154757
7363.58154297	0.436508268118
7366.61914063	0.435743331909
7369.67626953	0.434761941433
7372.75292969	0.433926552534
7375.84960938	0.433522254229
7378.96533203	0.43372669816
7382.10107422	0.434026062489
7385.25634766	0.434384793043
7388.43115234	0.434728503227
7391.62597656	0.435250967741
7394.83984375	0.436259657145
7398.07373047	0.438140720129
7401.32714844	0.440395504236
7404.60009766	0.442656695843
7407.89257813	0.444995582104
7411.20458984	0.44672358036
7414.53662109	0.448005527258
7417.88818359	0.448637098074
7421.25927734	0.449009180069
7424.64990234	0.448762595654
7428.06005859	0.448404669762
7431.49023438	0.447723954916
7434.93994141	0.446977376938
7438.40917969	0.446099102497
7441.89794922	0.445223242044
7445.40625	0.444562911987
7448.93457031	0.444667488337
7452.48193359	0.444955050945
7456.04931641	0.445718854666
7459.63623047	0.446894526482
7463.24316406	0.448286980391
7466.86914063	0.449557572603
7470.51513672	0.45083257556
7474.18017578	0.45234566927
7477.86523438	0.453708916903
7481.5703125	0.454962879419
7485.29443359	0.456076830626
7489.03857422	0.456834226847
7492.80175781	0.45750144124
7496.58496094	0.4579898417
7500.38769531	0.458492964506
7504.21044922	0.458858370781
7508.05224609	0.459284305573
7511.9140625	0.459757328033
7515.79541016	0.460054278374
7519.69628906	0.460778146982
7523.61669922	0.46149533987
7527.55712891	0.462181448936
7531.51660156	0.462817728519
7535.49609375	0.463518917561
7539.49511719	0.464258641005
7543.51367188	0.46520036459
7547.55175781	0.466156482697
7551.60986328	0.467055052519
7555.6875	0.467800170183
7559.78466797	0.468756079674
7563.90136719	0.469557404518
7568.03759766	0.470335036516
7572.19384766	0.4712651968
7576.36914063	0.471960276365
7580.56445313	0.472648859024
7584.77929688	0.47324308753
7589.01367188	0.473871856928
7593.26806641	0.474428445101
7597.54199219	0.475114822388
7601.83496094	0.475904434919
7606.14794922	0.476693540812
7610.48046875	0.477667301893
7614.83300781	0.478387564421
7619.20458984	0.479624390602
7623.59619141	0.481133908033
7628.00732422	0.482445269823
7632.43798828	0.483215779066
7636.88818359	0.48377841711
7641.35839844	0.484389454126
7645.84814453	0.485095351934
7650.35742188	0.485660910606
7654.88623047	0.48647069931
7659.43457031	0.487416476011
7664.00244141	0.488386571407
7668.59033203	0.489315509796
7673.19775391	0.49014672637
7677.82470703	0.491326183081
7682.47119141	0.49227309227
7687.13720703	0.49326094985
7691.82324219	0.494463652372
7696.52832031	0.495785653591
7701.25341797	0.496980845928
7705.99804688	0.498290628195
7710.76269531	0.4995226264
7715.54638672	0.500664174557
7720.35009766	0.501650571823
7725.17333984	0.502741038799
7730.01611328	0.503881037235
7734.87841797	0.504766523838
7739.76025391	0.505668103695
7744.66210938	0.506502330303
7749.58349609	0.50737953186
7754.52441406	0.507938563824
7759.48486328	0.508640885353
7764.46484375	0.509461581707
7769.46484375	0.510455131531
7774.484375	0.511471688747
7779.5234375	0.512568771839
7784.58203125	0.513614416122
7789.66015625	0.514849066734
7794.7578125	0.516141295433
7799.87548828	0.517502188683
7805.01269531	0.518691599369
7810.16943359	0.519878923893
7815.34570313	0.521200895309
7820.54199219	0.522673308849
7825.75732422	0.524108350277
7830.99267578	0.525164365768
7836.24755859	0.526233673096
7841.52197266	0.527311563492
7846.81591797	0.528182089329
7852.12988281	0.529292345047
7857.46337891	0.530587613583
7862.81640625	0.531777918339
7868.18896484	0.532963812351
7873.58105469	0.534256458282
7878.99267578	0.535654366016
7884.42431641	0.53702545166
7889.87548828	0.538450717926
7895.34619141	0.539734065533
7900.83642578	0.541270911694
7906.34667969	0.542890369892
7911.87597656	0.544445455074
7917.42529297	0.545680463314
7922.99414063	0.547165095806
7928.58251953	0.548467040062
7934.19042969	0.549390077591
7939.81835938	0.550746023655
7945.46582031	0.55202037096
7951.1328125	0.553436219692
7956.81933594	0.554827392101
7962.52539063	0.556146562099
7968.25097656	0.557424128056
7973.99658203	0.558552920818
7979.76171875	0.559754788876
7985.54638672	0.561218500137
7991.35058594	0.562765300274
7997.17480469	0.564022362232
8003.01806641	0.565170347691
8008.88134766	0.566305220127
8014.76416016	0.567481279373
8020.66650391	0.568586647511
8026.58837891	0.569790005684
8032.53027344	0.57125222683
8038.49169922	0.572726786137
8044.47216797	0.57404345274
8050.47314453	0.575568377972
8056.49316406	0.576998174191
8062.53271484	0.578804850578
8068.59228516	0.580863595009
8074.67138672	0.582054376602
8080.77001953	0.583007633686
8086.88818359	0.584375619888
8093.02587891	0.585669279099
8099.18359375	0.586775243282
8105.36083984	0.588032484055
