# Averaged Data //Vboxsvr/xafsdata/Standards/hematite_001_fl.avg created by SamView
6880.0	0.105624690652
6890.23828125	0.106209695339
6900.47607422	0.106537900865
6910.71435547	0.107356525958
6920.95214844	0.107524290681
6931.19042969	0.108497641981
6941.42871094	0.109145984054
6951.66650391	0.109731025994
6961.90478516	0.10940349102
6972.14306641	0.109973601997
6982.38085938	0.110433727503
6992.61914063	0.111233711243
7002.85693359	0.112161226571
7013.09521484	0.113099083304
7023.33349609	0.114066973329
7033.57128906	0.114961966872
7043.80957031	0.116769827902
7054.04785156	0.117961220443
7064.28564453	0.12064897269
7074.52392578	0.123564623296
7084.76171875	0.127185255289
7095.0	0.133925974369
7095.25	0.134081423283
7095.5	0.133943736553
7095.75	0.134188979864
7096.0	0.134802699089
7096.25	0.135639995337
7096.5	0.135345190763
7096.75	0.135611966252
7097.0	0.13562220335
7097.25	0.136323586106
7097.5	0.13629040122
7097.75	0.136476546526
7098.0	0.136856198311
7098.25	0.137189462781
7098.5	0.137233361602
7098.75	0.13773573935
7099.0	0.138128846884
7099.25	0.138617128134
7099.5	0.138963505626
7099.75	0.139066696167
7100.0	0.139514043927
7100.25	0.14025297761
7100.5	0.139966130257
7100.75	0.140767902136
7101.0	0.14126136899
7101.25	0.14157988131
7101.5	0.141882389784
7101.75	0.142250537872
7102.0	0.143262147903
7102.25	0.142928823829
7102.5	0.14387665689
7102.75	0.14417091012
7103.0	0.144447609782
7103.25	0.144859418273
7103.5	0.145480901003
7103.75	0.145879268646
7104.0	0.146603897214
7104.25	0.14688128233
7104.5	0.14764200151
7104.75	0.148113951087
7105.0	0.149037763476
7105.25	0.149775832891
7105.5	0.150068297982
7105.75	0.15099440515
7106.0	0.152270302176
7106.25	0.15230178833
7106.5	0.153257921338
7106.75	0.154537141323
7107.0	0.154912486672
7107.25	0.156133964658
7107.5	0.157556787133
7107.75	0.158601954579
7108.0	0.159534335136
7108.25	0.161604642868
7108.5	0.162917926908
7108.75	0.164216950536
7109.0	0.16616640985
7109.25	0.168244332075
7109.5	0.171337366104
7109.75	0.174227401614
7110.0	0.178654953837
7110.25	0.182430908084
7110.5	0.188506409526
7110.75	0.1958116889
7111.0	0.204765126109
7111.25	0.214790955186
7111.5	0.22714625299
7111.75	0.238186970353
7112.0	0.252455204725
7112.25	0.264828771353
7112.5	0.27570348978
7112.75	0.284747868776
7113.0	0.292559206486
7113.25	0.300389170647
7113.5	0.305313140154
7113.75	0.308665126562
7114.0	0.3094843328
7114.25	0.308279901743
7114.5	0.305391967297
7114.75	0.304194450378
7115.0	0.304725885391
7115.25	0.306114763021
7115.5	0.308191776276
7115.75	0.310461044312
7116.0	0.314060539007
7116.25	0.317721962929
7116.5	0.321508258581
7116.75	0.325715750456
7117.0	0.330072253942
7117.25	0.334970593452
7117.5	0.341058194637
7117.75	0.348324239254
7118.0	0.357114881277
7118.25	0.369679272175
7118.5	0.381371349096
7118.75	0.400414526463
7119.0	0.418661564589
7119.25	0.443578034639
7119.5	0.46873036027
7119.75	0.503481447697
7120.0	0.53868240118
7120.25	0.584145724773
7120.5	0.629608869553
7120.75	0.68826186657
7121.0	0.747330248356
7121.25	0.815308690071
7121.5	0.882142364979
7121.75	0.958874940872
7122.0	1.02907598019
7122.25	1.10124707222
7122.5	1.16713523865
7122.75	1.23540258408
7123.0	1.29699230194
7123.25	1.35437488556
7123.5	1.41276407242
7123.75	1.47001361847
7124.0	1.52805435658
7124.25	1.58546471596
7124.5	1.64742720127
7124.75	1.71128094196
7125.0	1.77804863453
7125.25	1.83959209919
7125.5	1.91022396088
7125.75	1.97401440144
7126.0	2.04060411453
7126.25	2.09872531891
7126.5	2.16262984276
7126.75	2.21678209305
7127.0	2.27238726616
7127.25	2.31744742393
7127.5	2.3704791069
7127.75	2.41226744652
7128.0	2.45433449745
7128.25	2.48550868034
7128.5	2.51514983177
7128.75	2.53716945648
7129.0	2.55432105064
7129.25	2.56684327126
7129.5	2.57626652718
7129.75	2.58368134499
7130.0	2.59177160263
7130.25	2.6005384922
7130.5	2.611109972
7130.75	2.62526965141
7131.0	2.6390709877
7131.25	2.652759552
7131.5	2.66586661339
7131.75	2.67798304558
7132.0	2.69071221352
7132.25	2.69704771042
7132.5	2.70107412338
7132.75	2.69937396049
7133.0	2.69269418716
7133.25	2.68589401245
7133.5	2.67146444321
7133.75	2.65601539612
7134.0	2.63933253288
7134.25	2.62274193764
7134.5	2.60188055038
7134.75	2.5830321312
7135.0	2.56403231621
7135.25	2.54741168022
7135.5	2.53259253502
7135.75	2.51596140862
7136.0	2.50425362587
7136.25	2.4924929142
7136.5	2.47994923592
7136.75	2.46697974205
7137.0	2.45740222931
7137.25	2.44334149361
7137.5	2.42974233627
7137.75	2.41490769386
7138.0	2.40148353577
7138.25	2.3843934536
7138.5	2.36898159981
7138.75	2.35052108765
7139.0	2.3354818821
7139.25	2.31790089607
7139.5	2.30285477638
7139.75	2.28672862053
7140.0	2.27181792259
7140.25	2.25592207909
7140.5	2.24221467972
7140.75	2.2281665802
7141.0	2.21579289436
7141.25	2.20270442963
7141.5	2.19500017166
7141.75	2.18132019043
7142.0	2.17319059372
7142.25	2.16628217697
7142.5	2.15831184387
7142.75	2.15219187737
7143.0	2.14887595177
7143.25	2.14513397217
7143.5	2.14138364792
7143.75	2.14250254631
7144.0	2.14177942276
7144.25	2.14128637314
7144.5	2.14143443108
7144.75	2.14319562912
7145.0	2.14384269714
7145.25	2.1448495388
7145.5	2.14692091942
7145.75	2.14881539345
7146.0	2.14720058441
7146.25	2.14705753326
7146.5	2.14587044716
7146.75	2.14332938194
7147.0	2.14044332504
7147.25	2.13588237762
7147.5	2.13211226463
7147.75	2.12326908112
7148.0	2.11745452881
7148.25	2.11095404625
7148.5	2.1018512249
7148.75	2.09458780289
7149.0	2.08678841591
7149.25	2.07537078857
7149.5	2.0675804615
7149.75	2.05777001381
7150.0	2.05205130577
7150.25	2.04376316071
7150.5	2.03492474556
7150.75	2.0277197361
7151.0	2.01976132393
7151.25	2.01144433022
7151.5	2.00674390793
7151.75	2.00036692619
7152.0	1.99324691296
7152.25	1.9866682291
7152.5	1.98100340366
7152.75	1.97406375408
7153.0	1.96836745739
7153.25	1.96140742302
7153.5	1.95424854755
7153.75	1.94874560833
7154.0	1.94303035736
7154.25	1.93750560284
7154.5	1.93033993244
7154.75	1.9242618084
7155.0	1.91740703583
7155.25	1.91160011292
7155.5	1.90372467041
7155.75	1.89877915382
7156.0	1.89371335506
7156.25	1.88756263256
7156.5	1.88106775284
7156.75	1.87639856339
7157.0	1.87082600594
7157.25	1.86777043343
7157.5	1.86351513863
7157.75	1.86005628109
7158.0	1.85654985905
7158.25	1.85434770584
7158.5	1.85146427155
7158.75	1.85090339184
7159.0	1.85008823872
7159.25	1.84941244125
7159.5	1.85022461414
7159.75	1.8499186039
7160.0	1.85065162182
7161.09472656	1.85553467274
7162.20947266	1.86645126343
7163.34326172	1.88074159622
7164.49707031	1.89858651161
7165.67041016	1.91666972637
7166.86376953	1.93657052517
7168.07617188	1.96283638477
7169.30859375	1.99834525585
7170.56005859	2.03995895386
7171.83154297	2.08756756783
7173.12304688	2.13986301422
7174.43359375	2.18736720085
7175.76367188	2.22042942047
7177.11376953	2.24145579338
7178.48339844	2.25605154037
7179.87255859	2.26525592804
7181.28173828	2.26684093475
7182.70996094	2.26760697365
7184.15820313	2.26354050636
7185.62597656	2.25937843323
7187.11328125	2.2566049099
7188.62011719	2.25443124771
7190.14648438	2.25246977806
7191.69287109	2.24528884888
7193.25878906	2.23527121544
7194.84423828	2.22443246841
7196.44921875	2.21463370323
7198.07373047	2.20377898216
7199.71826172	2.19249176979
7201.38183594	2.17963218689
7203.06542969	2.16703724861
7204.76855469	2.15550637245
7206.49169922	2.14983558655
7208.23388672	2.14601373672
7209.99609375	2.14502334595
7211.77783203	2.14587879181
7213.57910156	2.14964056015
7215.39990234	2.15629982948
7217.24023438	2.16739964485
7219.10058594	2.18010687828
7220.98046875	2.19093251228
7222.87988281	2.19638347626
7224.79882813	2.19946813583
7226.73730469	2.20003795624
7228.69580078	2.19695186615
7230.67333984	2.19408226013
7232.67089844	2.1939125061
7234.68798828	2.19894599915
7236.72509766	2.20519566536
7238.78125	2.21161055565
7240.85742188	2.21591114998
7242.953125	2.21476483345
7245.06835938	2.21151232719
7247.203125	2.20505261421
7249.35742188	2.20180773735
7251.53173828	2.2025551796
7253.72558594	2.20668745041
7255.93896484	2.21513986588
7258.171875	2.22845888138
7260.42431641	2.2417383194
7262.69677734	2.25620555878
7264.98828125	2.26868319511
7267.29980469	2.27862095833
7269.63085938	2.28346014023
7271.98193359	2.28755164146
7274.35205078	2.29396104813
7276.7421875	2.30550789833
7279.15185547	2.31656002998
7281.58105469	2.32389736176
7284.02978516	2.32804584503
7286.49804688	2.3292222023
7288.98632813	2.32921719551
7291.49414063	2.3283495903
7294.02148438	2.32644319534
7296.56835938	2.32430958748
7299.13476563	2.32005524635
7301.72119141	2.31341218948
7304.32666016	2.30512857437
7306.95214844	2.29666352272
7309.59716797	2.28909516335
7312.26220703	2.28216719627
7314.94628906	2.27352333069
7317.65039063	2.26673221588
7320.37353516	2.26501011848
7323.11669922	2.27171254158
7325.87988281	2.2821958065
7328.66210938	2.2989256382
7331.46435547	2.31701946259
7334.28564453	2.33581280708
7337.12695313	2.35271382332
7339.98828125	2.36984658241
7342.86865234	2.38176059723
7345.76855469	2.3868033886
7348.68847656	2.38942337036
7351.62792969	2.38750171661
7354.58691406	2.38641548157
7357.56542969	2.38538956642
7360.56396484	2.38410186768
7363.58154297	2.37993741035
7366.61914063	2.37680888176
7369.67626953	2.37178707123
7372.75292969	2.36868834496
7375.84960938	2.36882376671
7378.96533203	2.37182283401
7382.10107422	2.37388706207
7385.25634766	2.37566232681
7388.43115234	2.37930774689
7391.62597656	2.38274073601
7394.83984375	2.39076161385
7398.07373047	2.40332007408
7401.32714844	2.41647410393
7404.60009766	2.43130660057
7407.89257813	2.44395232201
7411.20458984	2.45557236671
7414.53662109	2.46228384972
7417.88818359	2.46763777733
7421.25927734	2.47069835663
7424.64990234	2.47019219398
7428.06005859	2.46743106842
7431.49023438	2.46450686455
7434.93994141	2.46093201637
7438.40917969	2.4573097229
7441.89794922	2.45332884789
7445.40625	2.45216536522
7448.93457031	2.45254921913
7452.48193359	2.45529866219
7456.04931641	2.46137452126
7459.63623047	2.47016501427
7463.24316406	2.47907733917
7466.86914063	2.48646235466
7470.51513672	2.49471259117
7474.18017578	2.5049290657
7477.86523438	2.51366186142
7481.5703125	2.52106952667
7485.29443359	2.52728819847
7489.03857422	2.53250551224
7492.80175781	2.53465223312
7496.58496094	2.53826642036
7500.38769531	2.54187679291
7504.21044922	2.54519724846
7508.05224609	2.55062794685
7511.9140625	2.55327749252
7515.79541016	2.55629515648
7519.69628906	2.5617992878
7523.61669922	2.56723427773
7527.55712891	2.57219219208
7531.51660156	2.57728695869
7535.49609375	2.58247804642
7539.49511719	2.58820176125
7543.51367188	2.59384155273
7547.55175781	2.59995174408
7551.60986328	2.60673332214
7555.6875	2.61166977882
7559.78466797	2.61758756638
7563.90136719	2.62240982056
7568.03759766	2.62872838974
7572.19384766	2.63323521614
7576.36914063	2.6380879879
7580.56445313	2.64441990852
7584.77929688	2.64910984039
7589.01367188	2.6542775631
7593.26806641	2.65931224823
7597.54199219	2.66456508636
7601.83496094	2.66945338249
7606.14794922	2.6743209362
7610.48046875	2.68069124222
7614.83300781	2.6879992485
7619.20458984	2.69656133652
7623.59619141	2.70546317101
7628.00732422	2.71366906166
7632.43798828	2.71800589561
7636.88818359	2.72227501869
7641.35839844	2.72710752487
7645.84814453	2.7306189537
7650.35742188	2.73541760445
7654.88623047	2.74162602425
7659.43457031	2.74801206589
7664.00244141	2.75430464745
7668.59033203	2.76023507118
7673.19775391	2.76642346382
7677.82470703	2.77384066582
7682.47119141	2.78130674362
7687.13720703	2.78917717934
7691.82324219	2.79625344276
7696.52832031	2.80546164513
7701.25341797	2.81331181526
7705.99804688	2.82119989395
7710.76269531	2.82868552208
7715.54638672	2.8362839222
7720.35009766	2.84209227562
7725.17333984	2.84862232208
7730.01611328	2.85482907295
7734.87841797	2.86119437218
7739.76025391	2.86785960197
7744.66210938	2.8739387989
7749.58349609	2.88037443161
7754.52441406	2.88681674004
7759.48486328	2.89381694794
7764.46484375	2.90021538734
7769.46484375	2.90657162666
7774.484375	2.91393280029
7779.5234375	2.92131638527
7784.58203125	2.92854833603
7789.66015625	2.93645954132
7794.7578125	2.94412064552
7799.87548828	2.95213222504
7805.01269531	2.95992946625
7810.16943359	2.96745824814
7815.34570313	2.97557020187
7820.54199219	2.9835858345
7825.75732422	2.99071240425
7830.99267578	2.99890470505
7836.24755859	3.00703859329
7841.52197266	3.01524710655
7846.81591797	3.02334141731
7852.12988281	3.0315580368
7857.46337891	3.0385119915
7862.81640625	3.04671859741
7868.18896484	3.053992033
7873.58105469	3.06387853622
7878.99267578	3.07212686539
7884.42431641	3.08162021637
7889.87548828	3.09051275253
7895.34619141	3.09768366814
7900.83642578	3.10453128815
7906.34667969	3.11212420464
7911.87597656	3.11955094337
7917.42529297	3.12830328941
7922.99414063	3.1357152462
7928.58251953	3.14494371414
7934.19042969	3.15296959877
7939.81835938	3.16123890877
7945.46582031	3.17024469376
7951.1328125	3.17957901955
7956.81933594	3.18932557106
7962.52539063	3.19828057289
7968.25097656	3.20804691315
7973.99658203	3.21700382233
7979.76171875	3.22552204132
7985.54638672	3.23355722427
7991.35058594	3.24148249626
7997.17480469	3.2496316433
8003.01806641	3.25743532181
8008.88134766	3.26517033577
8014.76416016	3.27393889427
8020.66650391	3.28239941597
8026.58837891	3.29167723656
8032.53027344	3.30183148384
8038.49169922	3.31071543694
8044.47216797	3.32028269768
8050.47314453	3.32940626144
8056.49316406	3.33953619003
8062.53271484	3.34870171547
8068.59228516	3.35899782181
8074.67138672	3.36875963211
8080.77001953	3.37850761414
8086.88818359	3.38819408417
8093.02587891	3.39848518372
8099.18359375	3.40780854225
8105.36083984	3.41751980782
