# Averaged Data //Vboxsvr/xafsdata/Standards/hornblende_001_fl.avg created by SamView
6880.0	0.0762726143003
6890.23828125	0.076373770833
6900.47607422	0.077090613544
6910.71435547	0.0768808275461
6920.95214844	0.0770048573613
6931.19042969	0.0779171139002
6941.42871094	0.0779379680753
6951.66650391	0.0785792022943
6961.90478516	0.0784512683749
6972.14306641	0.0784699544311
6982.38085938	0.0793220177293
6992.61914063	0.0794609487057
7002.85693359	0.0794695988297
7013.09521484	0.0802897512913
7023.33349609	0.0804720595479
7033.57128906	0.0816238895059
7043.80957031	0.0823822841048
7054.04785156	0.0833302885294
7064.28564453	0.0842306390405
7074.52392578	0.0869203209877
7084.76171875	0.0897221118212
7095.0	0.095415212214
7095.25	0.0952678695321
7095.5	0.0960958600044
7095.75	0.0961789041758
7096.0	0.0961211398244
7096.25	0.0966877117753
7096.5	0.0968128889799
7096.75	0.0971526950598
7097.0	0.0970107167959
7097.25	0.0972611159086
7097.5	0.0977088734508
7097.75	0.0982527956367
7098.0	0.0976597219706
7098.25	0.0984307825565
7098.5	0.099055826664
7098.75	0.0993794053793
7099.0	0.0989215299487
7099.25	0.099240206182
7099.5	0.100157484412
7099.75	0.0999963954091
7100.0	0.100297160447
7100.25	0.101435862482
7100.5	0.101212985814
7100.75	0.101186409593
7101.0	0.101890996099
7101.25	0.101682528853
7101.5	0.102487131953
7101.75	0.102589897811
7102.0	0.103108584881
7102.25	0.103480443358
7102.5	0.103253751993
7102.75	0.103776611388
7103.0	0.104744590819
7103.25	0.104977421463
7103.5	0.10577776283
7103.75	0.106062218547
7104.0	0.10643453151
7104.25	0.107029683888
7104.5	0.107253044844
7104.75	0.108560480177
7105.0	0.108982674778
7105.25	0.108989067376
7105.5	0.109592586756
7105.75	0.110332205892
7106.0	0.110837630928
7106.25	0.111318700016
7106.5	0.11303498596
7106.75	0.113891914487
7107.0	0.114712439477
7107.25	0.115723386407
7107.5	0.116324946284
7107.75	0.118127562106
7108.0	0.118349798024
7108.25	0.120401650667
7108.5	0.121819332242
7108.75	0.123108521104
7109.0	0.125527918339
7109.25	0.128064259887
7109.5	0.131072416902
7109.75	0.134690567851
7110.0	0.138788148761
7110.25	0.143574640155
7110.5	0.148455262184
7110.75	0.152929797769
7111.0	0.158757179976
7111.25	0.162505313754
7111.5	0.166600108147
7111.75	0.169414013624
7112.0	0.173810556531
7112.25	0.177056983113
7112.5	0.17961794138
7112.75	0.182312607765
7113.0	0.184190288186
7113.25	0.184925377369
7113.5	0.186043396592
7113.75	0.186472997069
7114.0	0.187979966402
7114.25	0.189070776105
7114.5	0.191458448768
7114.75	0.194928973913
7115.0	0.199066981673
7115.25	0.205058947206
7115.5	0.213602438569
7115.75	0.22449478507
7116.0	0.238652199507
7116.25	0.25710862875
7116.5	0.276563495398
7116.75	0.303387582302
7117.0	0.332687228918
7117.25	0.367391765118
7117.5	0.402477353811
7117.75	0.448379129171
7118.0	0.497889816761
7118.25	0.560073316097
7118.5	0.619493544102
7118.75	0.694624841213
7119.0	0.76991468668
7119.25	0.852880179882
7119.5	0.929145276546
7119.75	1.01469552517
7120.0	1.08244764805
7120.25	1.15569734573
7120.5	1.21176874638
7120.75	1.2738815546
7121.0	1.3251734972
7121.25	1.38237977028
7121.5	1.43426883221
7121.75	1.50453805923
7122.0	1.57031524181
7122.25	1.65195012093
7122.5	1.73440504074
7122.75	1.8322365284
7123.0	1.92212748528
7123.25	2.02047467232
7123.5	2.10269784927
7123.75	2.19086647034
7124.0	2.25724768639
7124.25	2.31710839272
7124.5	2.36605477333
7124.75	2.40528154373
7125.0	2.4375026226
7125.25	2.46503973007
7125.5	2.48774933815
7125.75	2.51192808151
7126.0	2.53927254677
7126.25	2.56746864319
7126.5	2.60078859329
7126.75	2.6400206089
7127.0	2.68679571152
7127.25	2.73536086082
7127.5	2.79630088806
7127.75	2.86148715019
7128.0	2.93001294136
7128.25	2.9929831028
7128.5	3.06248903275
7128.75	3.1130092144
7129.0	3.15807557106
7129.25	3.18300914764
7129.5	3.1979804039
7129.75	3.19672250748
7130.0	3.17889809608
7130.25	3.15230536461
7130.5	3.1201980114
7130.75	3.08086276054
7131.0	3.03622913361
7131.25	3.00193977356
7131.5	2.95924425125
7131.75	2.92988157272
7132.0	2.89082503319
7132.25	2.86117815971
7132.5	2.82265472412
7132.75	2.79107546806
7133.0	2.75025677681
7133.25	2.71400165558
7133.5	2.67229366302
7133.75	2.63241958618
7134.0	2.59149503708
7134.25	2.55651640892
7134.5	2.5187895298
7134.75	2.48440217972
7135.0	2.45953440666
7135.25	2.43257594109
7135.5	2.41358470917
7135.75	2.39136314392
7136.0	2.37448334694
7136.25	2.35926485062
7136.5	2.34380316734
7136.75	2.32698583603
7137.0	2.31620311737
7137.25	2.30548024178
7137.5	2.29322719574
7137.75	2.28302741051
7138.0	2.27898049355
7138.25	2.27301049232
7138.5	2.27192139626
7138.75	2.26933598518
7139.0	2.26893544197
7139.25	2.27170205116
7139.5	2.27399301529
7139.75	2.27486991882
7140.0	2.27546405792
7140.25	2.27806377411
7140.5	2.27719092369
7140.75	2.27816486359
7141.0	2.27672076225
7141.25	2.27937221527
7141.5	2.27539634705
7141.75	2.26835680008
7142.0	2.26617503166
7142.25	2.25999331474
7142.5	2.25336456299
7142.75	2.24618077278
7143.0	2.23915815353
7143.25	2.23091030121
7143.5	2.22207307816
7143.75	2.21146821976
7144.0	2.20022964478
7144.25	2.1933016777
7144.5	2.17859339714
7144.75	2.16837334633
7145.0	2.15724396706
7145.25	2.14412236214
7145.5	2.13157343864
7145.75	2.11871647835
7146.0	2.10420250893
7146.25	2.09091687202
7146.5	2.07903409004
7146.75	2.06333804131
7147.0	2.05252742767
7147.25	2.03650093079
7147.5	2.02331638336
7147.75	2.01002073288
7148.0	1.99922883511
7148.25	1.98716378212
7148.5	1.97438621521
7148.75	1.96593618393
7149.0	1.95614862442
7149.25	1.94476222992
7149.5	1.93936216831
7149.75	1.93169820309
7150.0	1.92501437664
7150.25	1.91576898098
7150.5	1.91259121895
7150.75	1.90506255627
7151.0	1.90015602112
7151.25	1.8984079361
7151.5	1.89439499378
7151.75	1.89172720909
7152.0	1.88993537426
7152.25	1.88856327534
7152.5	1.8888219595
7152.75	1.88595509529
7153.0	1.88378334045
7153.25	1.88433837891
7153.5	1.8878595829
7153.75	1.88648784161
7154.0	1.88753807545
7154.25	1.888718009
7154.5	1.89185571671
7154.75	1.89326429367
7155.0	1.89528274536
7155.25	1.89519882202
7155.5	1.8989546299
7155.75	1.90275871754
7156.0	1.90660822392
7156.25	1.9070661068
7156.5	1.91224730015
7156.75	1.91633927822
7157.0	1.91866195202
7157.25	1.92460167408
7157.5	1.92866754532
7157.75	1.93249416351
7158.0	1.93668329716
7158.25	1.94188058376
7158.5	1.94851648808
7158.75	1.95184481144
7159.0	1.96088421345
7159.25	1.96631622314
7159.5	1.97296833992
7159.75	1.97743177414
7160.0	1.98580038548
7161.09472656	2.02056694031
7162.20947266	2.05977916718
7163.34326172	2.09716629982
7164.49707031	2.13366174698
7165.67041016	2.16361880302
7166.86376953	2.18431425095
7168.07617188	2.19849729538
7169.30859375	2.21135497093
7170.56005859	2.22606778145
7171.83154297	2.24169611931
7173.12304688	2.2590739727
7174.43359375	2.28308844566
7175.76367188	2.30573678017
7177.11376953	2.32357859612
7178.48339844	2.33785891533
7179.87255859	2.34801840782
7181.28173828	2.35578727722
7182.70996094	2.35734128952
7184.15820313	2.35165977478
7185.62597656	2.34499979019
7187.11328125	2.3351213932
7188.62011719	2.32928729057
7190.14648438	2.31959223747
7191.69287109	2.30729579926
7193.25878906	2.29194307327
7194.84423828	2.27885842323
7196.44921875	2.2653939724
7198.07373047	2.25062465668
7199.71826172	2.23582482338
7201.38183594	2.22067856789
7203.06542969	2.20802903175
7204.76855469	2.1967420578
7206.49169922	2.18985939026
7208.23388672	2.18846559525
7209.99609375	2.18846511841
7211.77783203	2.19048047066
7213.57910156	2.19699573517
7215.39990234	2.20227789879
7217.24023438	2.20533585548
7219.10058594	2.2055850029
7220.98046875	2.20249342918
7222.87988281	2.19935870171
7224.79882813	2.19586443901
7226.73730469	2.19288229942
7228.69580078	2.19310092926
7230.67333984	2.19624614716
7232.67089844	2.2061548233
7234.68798828	2.21788072586
7236.72509766	2.23457503319
7238.78125	2.25142741203
7240.85742188	2.27079772949
7242.953125	2.2876765728
7245.06835938	2.30472326279
7247.203125	2.31904768944
7249.35742188	2.326618433
7251.53173828	2.32923150063
7253.72558594	2.32776546478
7255.93896484	2.32703256607
7258.171875	2.32431030273
7260.42431641	2.32192921638
7262.69677734	2.32034349442
7264.98828125	2.3163087368
7267.29980469	2.31248235703
7269.63085938	2.31239771843
7271.98193359	2.30899119377
7274.35205078	2.30752754211
7276.7421875	2.30383825302
7279.15185547	2.30258512497
7281.58105469	2.30451512337
7284.02978516	2.30418729782
7286.49804688	2.30339241028
7288.98632813	2.3031039238
7291.49414063	2.30323076248
7294.02148438	2.30450749397
7296.56835938	2.30373001099
7299.13476563	2.303150177
7301.72119141	2.30227732658
7304.32666016	2.29851675034
7306.95214844	2.29745435715
7309.59716797	2.29803395271
7312.26220703	2.30113863945
7314.94628906	2.30577135086
7317.65039063	2.31052565575
7320.37353516	2.31452822685
7323.11669922	2.31561088562
7325.87988281	2.31976509094
7328.66210938	2.32430768013
7331.46435547	2.32640385628
7334.28564453	2.32902407646
7337.12695313	2.33062887192
7339.98828125	2.33093976974
7342.86865234	2.33240437508
7345.76855469	2.33438491821
7348.68847656	2.34019446373
7351.62792969	2.34357523918
7354.58691406	2.34545183182
7357.56542969	2.34831523895
7360.56396484	2.35059118271
7363.58154297	2.3527507782
7366.61914063	2.35507822037
7369.67626953	2.35659432411
7372.75292969	2.35945057869
7375.84960938	2.36187434196
7378.96533203	2.36587977409
7382.10107422	2.36794543266
7385.25634766	2.36780333519
7388.43115234	2.3681178093
7391.62597656	2.36771821976
7394.83984375	2.3670399189
7398.07373047	2.36645364761
7401.32714844	2.36657047272
7404.60009766	2.36445689201
7407.89257813	2.36431312561
7411.20458984	2.36378240585
7414.53662109	2.36663842201
7417.88818359	2.36755299568
7421.25927734	2.3726811409
7424.64990234	2.37554717064
7428.06005859	2.37869310379
7431.49023438	2.38156723976
7434.93994141	2.38548088074
7438.40917969	2.38810825348
7441.89794922	2.39019536972
7445.40625	2.3939781189
7448.93457031	2.3984375
7452.48193359	2.40169453621
7456.04931641	2.40530753136
7459.63623047	2.40822005272
7463.24316406	2.41045808792
7466.86914063	2.41324806213
7470.51513672	2.41560459137
7474.18017578	2.41704797745
7477.86523438	2.41950058937
7481.5703125	2.42150259018
7485.29443359	2.42436695099
7489.03857422	2.42551445961
7492.80175781	2.42643976212
7496.58496094	2.42824721336
7500.38769531	2.43139958382
7504.21044922	2.43371391296
7508.05224609	2.43667387962
7511.9140625	2.43977665901
7515.79541016	2.44224786758
7519.69628906	2.44600343704
7523.61669922	2.44988274574
7527.55712891	2.45222115517
7531.51660156	2.45471739769
7535.49609375	2.45781421661
7539.49511719	2.46060657501
7543.51367188	2.46359705925
7547.55175781	2.46722435951
7551.60986328	2.46857976913
7555.6875	2.47050762177
7559.78466797	2.47323036194
7563.90136719	2.47368621826
7568.03759766	2.47871923447
7572.19384766	2.48104381561
7576.36914063	2.48350262642
7580.56445313	2.48686671257
7584.77929688	2.48883318901
7589.01367188	2.4932141304
7593.26806641	2.49813485146
7597.54199219	2.50103521347
7601.83496094	2.5044362545
7606.14794922	2.50852441788
7610.48046875	2.51008057594
7614.83300781	2.51776361465
7619.20458984	2.52091956139
7623.59619141	2.5239880085
7628.00732422	2.52644753456
7632.43798828	2.53086948395
7636.88818359	2.5343234539
7641.35839844	2.53737044334
7645.84814453	2.54150724411
7650.35742188	2.5443406105
7654.88623047	2.54707622528
7659.43457031	2.55179309845
7664.00244141	2.55440402031
7668.59033203	2.55713677406
7673.19775391	2.56113934517
7677.82470703	2.56503796577
7682.47119141	2.56830883026
7687.13720703	2.57144880295
7691.82324219	2.57609319687
7696.52832031	2.57855725288
7701.25341797	2.58261990547
7705.99804688	2.58660340309
7710.76269531	2.59041619301
7715.54638672	2.59513401985
7720.35009766	2.59895968437
7725.17333984	2.60206317902
7730.01611328	2.60704755783
7734.87841797	2.61106276512
7739.76025391	2.61440348625
7744.66210938	2.6177957058
7749.58349609	2.62179923058
7754.52441406	2.62552690506
7759.48486328	2.62930727005
7764.46484375	2.63270401955
7769.46484375	2.63626766205
7774.484375	2.63983273506
7779.5234375	2.64498806
7784.58203125	2.64930152893
7789.66015625	2.65349173546
7794.7578125	2.65855526924
7799.87548828	2.66311478615
7805.01269531	2.66691279411
7810.16943359	2.67102074623
7815.34570313	2.67525243759
7820.54199219	2.68014359474
7825.75732422	2.68607854843
7830.99267578	2.69013857841
7836.24755859	2.6933734417
7841.52197266	2.69674348831
7846.81591797	2.70293498039
7852.12988281	2.70675945282
7857.46337891	2.7107167244
7862.81640625	2.71498513222
7868.18896484	2.7195084095
7873.58105469	2.72350597382
7878.99267578	2.7280626297
7884.42431641	2.73244524002
7889.87548828	2.73712420464
7895.34619141	2.74180698395
7900.83642578	2.74722695351
7906.34667969	2.75105381012
7911.87597656	2.75634074211
7917.42529297	2.76148319244
7922.99414063	2.76661014557
7928.58251953	2.77125787735
7934.19042969	2.77569723129
7939.81835938	2.78142118454
7945.46582031	2.78573513031
7951.1328125	2.79101276398
7956.81933594	2.79724669456
7962.52539063	2.80149173737
7968.25097656	2.80692911148
7973.99658203	2.81141400337
7979.76171875	2.81637001038
7985.54638672	2.82108020782
7991.35058594	2.82636785507
7997.17480469	2.83176088333
8003.01806641	2.83597683907
8008.88134766	2.84117078781
8014.76416016	2.84522533417
8020.66650391	2.85135507584
8026.58837891	2.85586953163
8032.53027344	2.86093664169
8038.49169922	2.86642169952
8044.47216797	2.871571064
8050.47314453	2.87755870819
8056.49316406	2.88213610649
8062.53271484	2.88787055016
8068.59228516	2.89260935783
8074.67138672	2.89799308777
8080.77001953	2.90433216095
8086.88818359	2.90905880928
8093.02587891	2.91334819794
8099.18359375	2.91865849495
8105.36083984	2.92402744293
