# Averaged Data //Vboxsvr/xafsdata/Standards/ilmenite_001_fl.avg created by SamView
6880.0	0.0468931980431
6890.23828125	0.047234416008
6900.47607422	0.0474793054163
6910.71435547	0.0479907132685
6920.95214844	0.0485804416239
6931.19042969	0.0490455776453
6941.42871094	0.0494783706963
6951.66650391	0.0499328263104
6961.90478516	0.0504438243806
6972.14306641	0.051043510437
6982.38085938	0.0518113076687
6992.61914063	0.0525737442076
7002.85693359	0.0536174327135
7013.09521484	0.0547404512763
7023.33349609	0.0559657812119
7033.57128906	0.057527538389
7043.80957031	0.059490583837
7054.04785156	0.0619704835117
7064.28564453	0.0652899220586
7074.52392578	0.0700859948993
7084.76171875	0.0773677006364
7095.0	0.090452849865
7095.25	0.0909644290805
7095.5	0.0912599563599
7095.75	0.0918236225843
7096.0	0.0921959653497
7096.25	0.0926257744431
7096.5	0.0929822921753
7096.75	0.0936936959624
7097.0	0.0940795093775
7097.25	0.0947374477983
7097.5	0.0951994135976
7097.75	0.0957935526967
7098.0	0.0962619185448
7098.25	0.0969562157989
7098.5	0.0975143313408
7098.75	0.0981853380799
7099.0	0.0986452847719
7099.25	0.0994120165706
7099.5	0.0999917760491
7099.75	0.100608274341
7100.0	0.101259805262
7100.25	0.102072171867
7100.5	0.102773152292
7100.75	0.103566937149
7101.0	0.104233250022
7101.25	0.10503025353
7101.5	0.105779178441
7101.75	0.106599852443
7102.0	0.10742674768
7102.25	0.10828525573
7102.5	0.109149634838
7102.75	0.110064588487
7103.0	0.110965155065
7103.25	0.112008199096
7103.5	0.113076642156
7103.75	0.114022955298
7104.0	0.115096025169
7104.25	0.116254106164
7104.5	0.117497630417
7104.75	0.118587851524
7105.0	0.119983121753
7105.25	0.121169686317
7105.5	0.122652955353
7105.75	0.124071590602
7106.0	0.125709936023
7106.25	0.127197399735
7106.5	0.128922775388
7106.75	0.130389988422
7107.0	0.132589116693
7107.25	0.134552776814
7107.5	0.136848136783
7107.75	0.1388233006
7108.0	0.14168202877
7108.25	0.144100219011
7108.5	0.147283494473
7108.75	0.150141388178
7109.0	0.154149860144
7109.25	0.158211186528
7109.5	0.162589475513
7109.75	0.167532637715
7110.0	0.173962503672
7110.25	0.181147098541
7110.5	0.189492195845
7110.75	0.199299737811
7111.0	0.211262255907
7111.25	0.226369023323
7111.5	0.242462173104
7111.75	0.261645793915
7112.0	0.283752679825
7112.25	0.308767795563
7112.5	0.331198751926
7112.75	0.357085496187
7113.0	0.380205273628
7113.25	0.402602702379
7113.5	0.419076383114
7113.75	0.43517178297
7114.0	0.447064191103
7114.25	0.456893235445
7114.5	0.462050378323
7114.75	0.464669942856
7115.0	0.465022444725
7115.25	0.465661078691
7115.5	0.467997699976
7115.75	0.472924619913
7116.0	0.479109227657
7116.25	0.488190680742
7116.5	0.497371613979
7116.75	0.509853243828
7117.0	0.523184120655
7117.25	0.538784265518
7117.5	0.55407333374
7117.75	0.574934601784
7118.0	0.596549868584
7118.25	0.622874975204
7118.5	0.650312304497
7118.75	0.686748623848
7119.0	0.725685179234
7119.25	0.772053062916
7119.5	0.823701202869
7119.75	0.886124074459
7120.0	0.955546855927
7120.25	1.03030073643
7120.5	1.11248755455
7120.75	1.20443892479
7121.0	1.3077340126
7121.25	1.41018867493
7121.5	1.52172589302
7121.75	1.64365613461
7122.0	1.76917421818
7122.25	1.88624942303
7122.5	2.011064291
7122.75	2.13565826416
7123.0	2.25971078873
7123.25	2.36462521553
7123.5	2.48092007637
7123.75	2.58470606804
7124.0	2.69074583054
7124.25	2.77949690819
7124.5	2.87921595573
7124.75	2.96955966949
7125.0	3.06700325012
7125.25	3.14974927902
7125.5	3.24459004402
7125.75	3.33077764511
7126.0	3.42360019684
7126.25	3.50030875206
7126.5	3.58866405487
7126.75	3.66531348228
7127.0	3.74214601517
7127.25	3.80607771873
7127.5	3.87542533875
7127.75	3.93525362015
7128.0	3.99292874336
7128.25	4.04223060608
7128.5	4.09207677841
7128.75	4.1327085495
7129.0	4.17014884949
7129.25	4.19813251495
7129.5	4.22479200363
7129.75	4.24550914764
7130.0	4.26303625107
7130.25	4.27631044388
7130.5	4.28814792633
7130.75	4.29865837097
7131.0	4.30908155441
7131.25	4.31912279129
7131.5	4.329164505
7131.75	4.33916473389
7132.0	4.34886217117
7132.25	4.35630702972
7132.5	4.36236429214
7132.75	4.36569070816
7133.0	4.36608362198
7133.25	4.36434221268
7133.5	4.35802793503
7133.75	4.34809064865
7134.0	4.3359336853
7134.25	4.3205947876
7134.5	4.30367040634
7134.75	4.28266906738
7135.0	4.26369380951
7135.25	4.24269580841
7135.5	4.22267627716
7135.75	4.20016956329
7136.0	4.18207931519
7136.25	4.16320943832
7136.5	4.14539194107
7136.75	4.12648630142
7137.0	4.11233901978
7137.25	4.09472513199
7137.5	4.07922458649
7137.75	4.06128406525
7138.0	4.04677200317
7138.25	4.02704715729
7138.5	4.00988769531
7138.75	3.98930263519
7139.0	3.97188162804
7139.25	3.95007371902
7139.5	3.93076610565
7139.75	3.90871119499
7140.0	3.89073109627
7140.25	3.86999726295
7140.5	3.85188674927
7140.75	3.83340835571
7141.0	3.81765460968
7141.25	3.80058503151
7141.5	3.78582525253
7141.75	3.77131915092
7142.0	3.75918650627
7142.25	3.74687743187
7142.5	3.73659110069
7142.75	3.72727823257
7143.0	3.71929645538
7143.25	3.71150779724
7143.5	3.70611596107
7143.75	3.7003698349
7144.0	3.69764399529
7144.25	3.69448494911
7144.5	3.69221234322
7144.75	3.69056749344
7145.0	3.68999052048
7145.25	3.69013285637
7145.5	3.68936896324
7145.75	3.68881750107
7146.0	3.68853378296
7146.25	3.68760681152
7146.5	3.68631362915
7146.75	3.68406844139
7147.0	3.68189311028
7147.25	3.67812848091
7147.5	3.67292428017
7147.75	3.66780328751
7148.0	3.66114735603
7148.25	3.6525747776
7148.5	3.64376544952
7148.75	3.63481235504
7149.0	3.6248524189
7149.25	3.61441135406
7149.5	3.60304117203
7149.75	3.59220695496
7150.0	3.58083248138
7150.25	3.56890940666
7150.5	3.55780863762
7150.75	3.5471777916
7151.0	3.53590416908
7151.25	3.52534985542
7151.5	3.51414442062
7151.75	3.50541043282
7152.0	3.49495577812
7152.25	3.48525738716
7152.5	3.47572922707
7152.75	3.4675962925
7153.0	3.4580643177
7153.25	3.44974589348
7153.5	3.44025039673
7153.75	3.43217110634
7154.0	3.42320537567
7154.25	3.4149787426
7154.5	3.405605793
7154.75	3.39723920822
7155.0	3.38886618614
7155.25	3.38006854057
7155.5	3.37135481834
7155.75	3.36359524727
7156.0	3.35498261452
7156.25	3.34592533112
7156.5	3.3385848999
7156.75	3.3323996067
7157.0	3.32384896278
7157.25	3.31705904007
7157.5	3.31053876877
7157.75	3.3053958416
7158.0	3.29998898506
7158.25	3.29567074776
7158.5	3.29141378403
7158.75	3.28838849068
7159.0	3.28592324257
7159.25	3.28418087959
7159.5	3.28211116791
7159.75	3.28230142593
7160.0	3.28162002563
7161.09472656	3.2870965004
7162.20947266	3.3005001545
7163.34326172	3.31980609894
7164.49707031	3.3431456089
7165.67041016	3.36894631386
7166.86376953	3.39931225777
7168.07617188	3.43604254723
7169.30859375	3.48150110245
7170.56005859	3.53590202332
7171.83154297	3.59901285172
7173.12304688	3.66491699219
7174.43359375	3.72855305672
7175.76367188	3.77813363075
7177.11376953	3.81062436104
7178.48339844	3.83223009109
7179.87255859	3.84607553482
7181.28173828	3.85284161568
7182.70996094	3.85364985466
7184.15820313	3.84912490845
7185.62597656	3.84393024445
7187.11328125	3.83856272697
7188.62011719	3.83367300034
7190.14648438	3.82804512978
7191.69287109	3.81917190552
7193.25878906	3.80748558044
7194.84423828	3.78801465034
7196.44921875	3.77109217644
7198.07373047	3.7574403286
7199.71826172	3.73948335648
7201.38183594	3.72080278397
7203.06542969	3.70219635963
7204.76855469	3.68630886078
7206.49169922	3.67557573318
7208.23388672	3.66947364807
7209.99609375	3.6674387455
7211.77783203	3.66872835159
7213.57910156	3.67375040054
7215.39990234	3.68358397484
7217.24023438	3.69871640205
7219.10058594	3.71495747566
7220.98046875	3.72963190079
7222.87988281	3.74010515213
7224.79882813	3.74525904655
7226.73730469	3.74606204033
7228.69580078	3.74334144592
7230.67333984	3.74006557465
7232.67089844	3.73951983452
7234.68798828	3.7436478138
7236.72509766	3.75054883957
7238.78125	3.75675463676
7240.85742188	3.75937485695
7242.953125	3.75685095787
7245.06835938	3.74979829788
7247.203125	3.74167346954
7249.35742188	3.73780298233
7251.53173828	3.73821735382
7253.72558594	3.74334907532
7255.93896484	3.75431394577
7258.171875	3.77030348778
7260.42431641	3.78871297836
7262.69677734	3.8059232235
7264.98828125	3.8210105896
7267.29980469	3.83237934113
7269.63085938	3.83967995644
7271.98193359	3.84452533722
7274.35205078	3.85315585136
7276.7421875	3.86548066139
7279.15185547	3.87723970413
7281.58105469	3.88527655602
7284.02978516	3.88959932327
7286.49804688	3.89034366608
7288.98632813	3.88779473305
7291.49414063	3.88499379158
7294.02148438	3.88220238686
7296.56835938	3.87808132172
7299.13476563	3.87208366394
7301.72119141	3.86280894279
7304.32666016	3.85199975967
7306.95214844	3.84108924866
7309.59716797	3.83088684082
7312.26220703	3.82077479362
7314.94628906	3.81058049202
7317.65039063	3.80312085152
7320.37353516	3.80196833611
7323.11669922	3.80887961388
7325.87988281	3.82242202759
7328.66210938	3.84155321121
7331.46435547	3.86237025261
7334.28564453	3.88359427452
7337.12695313	3.90384602547
7339.98828125	3.92076849937
7342.86865234	3.93308949471
7345.76855469	3.9400165081
7348.68847656	3.9407889843
7351.62792969	3.93890500069
7354.58691406	3.93778586388
7357.56542969	3.93643045425
7360.56396484	3.93352079391
7363.58154297	3.92965555191
7366.61914063	3.92452335358
7369.67626953	3.91987204552
7372.75292969	3.91485524178
7375.84960938	3.91427564621
7378.96533203	3.9163877964
7382.10107422	3.91802787781
7385.25634766	3.91710352898
7388.43115234	3.92247438431
7391.62597656	3.92668175697
7394.83984375	3.93568754196
7398.07373047	3.94866800308
7401.32714844	3.96367406845
7404.60009766	3.97850704193
7407.89257813	3.99182963371
7411.20458984	4.00354099274
7414.53662109	4.01138496399
7417.88818359	4.01623535156
7421.25927734	4.01816797256
7424.64990234	4.01752376556
7428.06005859	4.01491594315
7431.49023438	4.01137590408
7434.93994141	4.0068602562
7438.40917969	4.0018787384
7441.89794922	3.99712204933
7445.40625	3.99520802498
7448.93457031	3.99612998962
7452.48193359	3.99984812737
7456.04931641	4.00643634796
7459.63623047	4.01454162598
7463.24316406	4.02335119247
7466.86914063	4.03178405762
7470.51513672	4.04048347473
7474.18017578	4.04984378815
7477.86523438	4.05901288986
7481.5703125	4.0672287941
7485.29443359	4.07304763794
7489.03857422	4.07797956467
7492.80175781	4.08167695999
7496.58496094	4.08528518677
7500.38769531	4.08885097504
7504.21044922	4.09279489517
7508.05224609	4.09627151489
7511.9140625	4.09978485107
7515.79541016	4.10343360901
7519.69628906	4.10788202286
7523.61669922	4.11313867569
7527.55712891	4.11843919754
7531.51660156	4.1235666275
7535.49609375	4.12868356705
7539.49511719	4.13459777832
7543.51367188	4.14057159424
7547.55175781	4.14700222015
7551.60986328	4.15265035629
7555.6875	4.15806102753
7559.78466797	4.1633644104
7563.90136719	4.16871166229
7568.03759766	4.17421865463
7572.19384766	4.17925214767
7576.36914063	4.18457221985
7580.56445313	4.18961524963
7584.77929688	4.19512319565
7589.01367188	4.1998333931
7593.26806641	4.20529699326
7597.54199219	4.21039485931
7601.83496094	4.21520233154
7606.14794922	4.22066545486
7610.48046875	4.22655057907
7614.83300781	4.23408317566
7619.20458984	4.24219894409
7623.59619141	4.25037574768
7628.00732422	4.25764513016
7632.43798828	4.26314258575
7636.88818359	4.26748514175
7641.35839844	4.27158641815
7645.84814453	4.27609491348
7650.35742188	4.28069829941
7654.88623047	4.28628969193
7659.43457031	4.2926864624
7664.00244141	4.29859924316
7668.59033203	4.30457925797
7673.19775391	4.31087970734
7677.82470703	4.31810188293
7682.47119141	4.3254275322
7687.13720703	4.3368563652
7691.82324219	4.3343501091
7696.52832031	4.34797906876
7701.25341797	4.35558509827
7705.99804688	4.36221122742
7710.76269531	4.37762498856
7715.54638672	4.37853145599
7720.35009766	4.38463068008
7725.17333984	4.39087438583
7730.01611328	4.39712381363
7734.87841797	4.40295886993
7739.76025391	4.40891456604
7744.66210938	4.41487026215
7749.58349609	4.42100286484
7754.52441406	4.42684555054
7759.48486328	4.43262958527
7764.46484375	4.43824148178
7769.46484375	4.44448471069
7774.484375	4.45137262344
7779.5234375	4.45842695236
7784.58203125	4.46604394913
7789.66015625	4.47394704819
7794.7578125	4.48152112961
7799.87548828	4.48886919022
7805.01269531	4.49649620056
7810.16943359	4.50430631638
7815.34570313	4.51210260391
7820.54199219	4.51952123642
7825.75732422	4.5269742012
7830.99267578	4.5340385437
7836.24755859	4.54147863388
7841.52197266	4.54866313934
7846.81591797	4.55594444275
7852.12988281	4.56312131882
7857.46337891	4.57038164139
7862.81640625	4.57746696472
7868.18896484	4.58447599411
7873.58105469	4.59188127518
7878.99267578	4.59911060333
7884.42431641	4.60734653473
7889.87548828	4.6152715683
7895.34619141	4.62303876877
7900.83642578	4.63112640381
7906.34667969	4.63913345337
7911.87597656	4.64706373215
7917.42529297	4.6548948288
7922.99414063	4.66330385208
7928.58251953	4.67110586166
7934.19042969	4.67901945114
7939.81835938	4.68751049042
7945.46582031	4.69554376602
7951.1328125	4.70385932922
7956.81933594	4.71230506897
7962.52539063	4.72018909454
7968.25097656	4.72868156433
7973.99658203	4.73667287827
7979.76171875	4.74457931519
7985.54638672	4.75241994858
7991.35058594	4.76021909714
7997.17480469	4.76815795898
8003.01806641	4.77588939667
8008.88134766	4.78389453888
8014.76416016	4.79205846786
8020.66650391	4.80033969879
8026.58837891	4.80880069733
8032.53027344	4.81745481491
8038.49169922	4.82591724396
8044.47216797	4.83448076248
8050.47314453	4.84297180176
8056.49316406	4.85169458389
8062.53271484	4.86034584045
8068.59228516	4.86886262894
8074.67138672	4.87754583359
8080.77001953	4.88622045517
8086.88818359	4.89475154877
8093.02587891	4.90303182602
8099.18359375	4.91151857376
8105.36083984	4.91963338852
