# Averaged Data //Vboxsvr/xafsdata/Standards/lepidocrocite_001_fl.avg created by SamView
6880.0	0.0791887491941
6890.23828125	0.0793419182301
6900.47607422	0.0802245736122
6910.71435547	0.0804796591401
6920.95214844	0.0809630602598
6931.19042969	0.0812749490142
6941.42871094	0.0821385681629
6951.66650391	0.0829189568758
6961.90478516	0.083895996213
6972.14306641	0.0842955857515
6982.38085938	0.0852120220661
6992.61914063	0.0863557234406
7002.85693359	0.0869786068797
7013.09521484	0.0884204655886
7023.33349609	0.0899156928062
7033.57128906	0.0921081751585
7043.80957031	0.0942844003439
7054.04785156	0.0974191948771
7064.28564453	0.101878911257
7074.52392578	0.106659159064
7084.76171875	0.115153774619
7095.0	0.130940109491
7095.25	0.13081215322
7095.5	0.13183607161
7095.75	0.132014453411
7096.0	0.132913172245
7096.25	0.133211895823
7096.5	0.133911177516
7096.75	0.134146630764
7097.0	0.135193407536
7097.25	0.136526584625
7097.5	0.136380344629
7097.75	0.136864751577
7098.0	0.138380527496
7098.25	0.138341486454
7098.5	0.13909496367
7098.75	0.13991305232
7099.0	0.140451997519
7099.25	0.141015559435
7099.5	0.142191633582
7099.75	0.143472582102
7100.0	0.143559843302
7100.25	0.144239962101
7100.5	0.145293176174
7100.75	0.145737543702
7101.0	0.146659955382
7101.25	0.147627413273
7101.5	0.148778125644
7101.75	0.14975745976
7102.0	0.150710657239
7102.25	0.151690393686
7102.5	0.152959063649
7102.75	0.153941199183
7103.0	0.154727935791
7103.25	0.155936673284
7103.5	0.157262161374
7103.75	0.158175453544
7104.0	0.158718705177
7104.25	0.161278784275
7104.5	0.161727875471
7104.75	0.163470119238
7105.0	0.16418325901
7105.25	0.165687739849
7105.5	0.167220592499
7105.75	0.168861299753
7106.0	0.170776084065
7106.25	0.172675207257
7106.5	0.174276202917
7106.75	0.176238760352
7107.0	0.178193956614
7107.25	0.180637389421
7107.5	0.183007836342
7107.75	0.184878483415
7108.0	0.186996623874
7108.25	0.190243124962
7108.5	0.192811071873
7108.75	0.196606993675
7109.0	0.200269758701
7109.25	0.204000249505
7109.5	0.209736689925
7109.75	0.214599698782
7110.0	0.22082093358
7110.25	0.22831441462
7110.5	0.23953473568
7110.75	0.250443637371
7111.0	0.266513556242
7111.25	0.284774959087
7111.5	0.30975496769
7111.75	0.334508180618
7112.0	0.368243992329
7112.25	0.398740828037
7112.5	0.425494343042
7112.75	0.4411033988
7113.0	0.450018554926
7113.25	0.452215641737
7113.5	0.455934286118
7113.75	0.458086997271
7114.0	0.459534853697
7114.25	0.457729846239
7114.5	0.45168864727
7114.75	0.444829314947
7115.0	0.442835271358
7115.25	0.445476680994
7115.5	0.452427536249
7115.75	0.463716745377
7116.0	0.476415872574
7116.25	0.491906911135
7116.5	0.506370186806
7116.75	0.523357331753
7117.0	0.539859712124
7117.25	0.556905508041
7117.5	0.573390007019
7117.75	0.593612611294
7118.0	0.614291071892
7118.25	0.641490340233
7118.5	0.667520105839
7118.75	0.70476269722
7119.0	0.743835270405
7119.25	0.793863594532
7119.5	0.847087740898
7119.75	0.918083786964
7120.0	0.990353643894
7120.25	1.08302938938
7120.5	1.17719244957
7120.75	1.2981928587
7121.0	1.42190647125
7121.25	1.57447099686
7121.5	1.71800863743
7121.75	1.90139317513
7122.0	2.06894898415
7122.25	2.25602889061
7122.5	2.42440509796
7122.75	2.61917662621
7123.0	2.79344725609
7123.25	2.97313094139
7123.5	3.13729310036
7123.75	3.31919288635
7124.0	3.48682880402
7124.25	3.66910481453
7124.5	3.84880161285
7124.75	4.05215358734
7125.0	4.25634813309
7125.25	4.47164821625
7125.5	4.69471502304
7125.75	4.92794656754
7126.0	5.17581176758
7126.25	5.41784763336
7126.5	5.67390155792
7126.75	5.92850160599
7127.0	6.17971324921
7127.25	6.40055608749
7127.5	6.63621234894
7127.75	6.84160804749
7128.0	7.04306840897
7128.25	7.19506502151
7128.5	7.34234046936
7128.75	7.45668983459
7129.0	7.56346654892
7129.25	7.64286565781
7129.5	7.72119855881
7129.75	7.77142477036
7130.0	7.8214764595
7130.25	7.86051416397
7130.5	7.88913106918
7130.75	7.90371894836
7131.0	7.90835094452
7131.25	7.89914798737
7131.5	7.8813829422
7131.75	7.85579395294
7132.0	7.81644153595
7132.25	7.77667665482
7132.5	7.72692489624
7132.75	7.6801867485
7133.0	7.62440681458
7133.25	7.57942914963
7133.5	7.52233934402
7133.75	7.48310422897
7134.0	7.44324398041
7134.25	7.40448617935
7134.5	7.36956214905
7134.75	7.33398103714
7135.0	7.3061003685
7135.25	7.27581548691
7135.5	7.24550056458
7135.75	7.21615219116
7136.0	7.18714380264
7136.25	7.15915203094
7136.5	7.12802124023
7136.75	7.09502077103
7137.0	7.06759691238
7137.25	7.03033065796
7137.5	6.99495840073
7137.75	6.9580950737
7138.0	6.92252826691
7138.25	6.88292455673
7138.5	6.8437962532
7138.75	6.80495214462
7139.0	6.76457357407
7139.25	6.72258281708
7139.5	6.68120718002
7139.75	6.64530134201
7140.0	6.60955238342
7140.25	6.57185935974
7140.5	6.53996372223
7140.75	6.50326681137
7141.0	6.47191095352
7141.25	6.43884801865
7141.5	6.4122133255
7141.75	6.38154125214
7142.0	6.35740232468
7142.25	6.3308339119
7142.5	6.30918836594
7142.75	6.28505992889
7143.0	6.26657152176
7143.25	6.24575901031
7143.5	6.23020792007
7143.75	6.21482467651
7144.0	6.20202922821
7144.25	6.18487405777
7144.5	6.1752614975
7144.75	6.16898918152
7145.0	6.15657281876
7145.25	6.14593601227
7145.5	6.13590574265
7145.75	6.12581682205
7146.0	6.11736392975
7146.25	6.10258054733
7146.5	6.08657884598
7146.75	6.06643009186
7147.0	6.04866933823
7147.25	6.02400875092
7147.5	6.00240945816
7147.75	5.97061920166
7148.0	5.94083118439
7148.25	5.90184640884
7148.5	5.86610603333
7148.75	5.82614564896
7149.0	5.78999662399
7149.25	5.7475566864
7149.5	5.71058607101
7149.75	5.66796684265
7150.0	5.63149309158
7150.25	5.58925199509
7150.5	5.55464553833
7150.75	5.51208734512
7151.0	5.48040437698
7151.25	5.44151067734
7151.5	5.40859031677
7151.75	5.37773132324
7152.0	5.34850978851
7152.25	5.31594133377
7152.5	5.28662443161
7152.75	5.25956964493
7153.0	5.23729991913
7153.25	5.20888519287
7153.5	5.19035387039
7153.75	5.16588258743
7154.0	5.14825534821
7154.25	5.12669181824
7154.5	5.10785102844
7154.75	5.09405612946
7155.0	5.07627677917
7155.25	5.06227016449
7155.5	5.04859495163
7155.75	5.03920793533
7156.0	5.02489852905
7156.25	5.01641321182
7156.5	5.0061750412
7156.75	5.00011491776
7157.0	4.9909954071
7157.25	4.98655176163
7157.5	4.98081731796
7157.75	4.97502708435
7158.0	4.97199583054
7158.25	4.96588659286
7158.5	4.96465396881
7158.75	4.96190643311
7159.0	4.95664167404
7159.25	4.95524597168
7159.5	4.95519399643
7159.75	4.95414829254
7160.0	4.95617294312
7161.09472656	4.96198797226
7162.20947266	4.98495721817
7163.34326172	5.03457832336
7164.49707031	5.10534620285
7165.67041016	5.19348716736
7166.86376953	5.29613542557
7168.07617188	5.41877269745
7169.30859375	5.55228662491
7170.56005859	5.69988155365
7171.83154297	5.84375047684
7173.12304688	5.98398733139
7174.43359375	6.11229944229
7175.76367188	6.20647335052
7177.11376953	6.27051877975
7178.48339844	6.31761312485
7179.87255859	6.35016822815
7181.28173828	6.36419534683
7182.70996094	6.35722875595
7184.15820313	6.33624839783
7185.62597656	6.30885696411
7187.11328125	6.28013849258
7188.62011719	6.24382829666
7190.14648438	6.20805501938
7191.69287109	6.17148113251
7193.25878906	6.1347322464
7194.84423828	6.1094865799
7196.44921875	6.09018087387
7198.07373047	6.07769155502
7199.71826172	6.07162904739
7201.38183594	6.06498146057
7203.06542969	6.05693340302
7204.76855469	6.04871606827
7206.49169922	6.03982543945
7208.23388672	6.0315284729
7209.99609375	6.02472877502
7211.77783203	6.02282905579
7213.57910156	6.01364898682
7215.39990234	6.00962924957
7217.24023438	6.00056362152
7219.10058594	5.99946308136
7220.98046875	5.99759054184
7222.87988281	5.99628829956
7224.79882813	5.98713588715
7226.73730469	5.97025871277
7228.69580078	5.94257354736
7230.67333984	5.90608310699
7232.67089844	5.87459039688
7234.68798828	5.84855461121
7236.72509766	5.83649158478
7238.78125	5.84138202667
7240.85742188	5.86014127731
7242.953125	5.8921380043
7245.06835938	5.93290567398
7247.203125	5.98879528046
7249.35742188	6.04709720612
7251.53173828	6.10140705109
7253.72558594	6.14715051651
7255.93896484	6.19745874405
7258.171875	6.23604202271
7260.42431641	6.24921894073
7262.69677734	6.31405448914
7264.98828125	6.35000705719
7267.29980469	6.38305234909
7269.63085938	6.40088176727
7271.98193359	6.40989208221
7274.35205078	6.40783548355
7276.7421875	6.39897298813
7279.15185547	6.37310409546
7281.58105469	6.33607196808
7284.02978516	6.29113054276
7286.49804688	6.24452161789
7288.98632813	6.20491266251
7291.49414063	6.16921663284
7294.02148438	6.14262533188
7296.56835938	6.12357234955
7299.13476563	6.11813259125
7301.72119141	6.12045812607
7304.32666016	6.13687944412
7306.95214844	6.16472959518
7309.59716797	6.19684457779
7312.26220703	6.23088884354
7314.94628906	6.26605319977
7317.65039063	6.2945432663
7320.37353516	6.31435203552
7323.11669922	6.32061624527
7325.87988281	6.32479286194
7328.66210938	6.33031368256
7331.46435547	6.32958078384
7334.28564453	6.32938480377
7337.12695313	6.31945133209
7339.98828125	6.31143331528
7342.86865234	6.30234718323
7345.76855469	6.29870510101
7348.68847656	6.29732131958
7351.62792969	6.30517530441
7354.58691406	6.32175731659
7357.56542969	6.34001970291
7360.56396484	6.35066366196
7363.58154297	6.35472106934
7366.61914063	6.35555171967
7369.67626953	6.36356735229
7372.75292969	6.37569856644
7375.84960938	6.38990354538
7378.96533203	6.40970516205
7382.10107422	6.43402957916
7385.25634766	6.45628166199
7388.43115234	6.47651720047
7391.62597656	6.49630689621
7394.83984375	6.50725889206
7398.07373047	6.51356315613
7401.32714844	6.51610040665
7404.60009766	6.51314783096
7407.89257813	6.50885295868
7411.20458984	6.4993596077
7414.53662109	6.48953580856
7417.88818359	6.48104858398
7421.25927734	6.47228193283
7424.64990234	6.46746015549
7428.06005859	6.46234226227
7431.49023438	6.4650759697
7434.93994141	6.46839761734
7438.40917969	6.47470283508
7441.89794922	6.48232507706
7445.40625	6.49150753021
7448.93457031	6.50177335739
7452.48193359	6.51164865494
7456.04931641	6.5295343399
7459.63623047	6.55035209656
7463.24316406	6.57345294952
7466.86914063	6.59639787674
7470.51513672	6.61870670319
7474.18017578	6.63774347305
7477.86523438	6.65353965759
7481.5703125	6.66424131393
7485.29443359	6.66617870331
7489.03857422	6.66829872131
7492.80175781	6.66921615601
7496.58496094	6.66867876053
7500.38769531	6.67377853394
7504.21044922	6.67764997482
7508.05224609	6.68269395828
7511.9140625	6.68593931198
7515.79541016	6.69173002243
7519.69628906	6.67819023132
7523.61669922	6.70101118088
7527.55712891	6.71080684662
7531.51660156	6.72271633148
7535.49609375	6.73874235153
7539.49511719	6.75392770767
7543.51367188	6.76627540588
7547.55175781	6.78159713745
7551.60986328	6.79345178604
7555.6875	6.80858135223
7559.78466797	6.81911373138
7563.90136719	6.8308839798
7568.03759766	6.84046888351
7572.19384766	6.84753894806
7576.36914063	6.85280036926
7580.56445313	6.85778331757
7584.77929688	6.86076450348
7589.01367188	6.86612510681
7593.26806641	6.87268352509
7597.54199219	6.87880659103
7601.83496094	6.88821601868
7606.14794922	6.89906835556
7610.48046875	6.9106054306
7614.83300781	6.92152070999
7619.20458984	6.93667173386
7623.59619141	6.95126247406
7628.00732422	6.92809963226
7632.43798828	7.00936698914
7636.88818359	6.99402570724
7641.35839844	7.00794792175
7645.84814453	7.02378940582
7650.35742188	7.0397605896
7654.88623047	7.0537147522
7659.43457031	7.06486558914
7664.00244141	7.07476854324
7668.59033203	7.08342599869
7673.19775391	7.09224367142
7677.82470703	7.10159111023
7682.47119141	7.1115655899
7687.13720703	7.12004995346
7691.82324219	7.12999296188
7696.52832031	7.1394109726
7701.25341797	7.14808559418
7705.99804688	7.15757322311
7710.76269531	7.16286945343
7715.54638672	7.17555999756
7720.35009766	7.19129514694
7725.17333984	7.20195913315
7730.01611328	7.21465349197
7734.87841797	7.22762870789
7739.76025391	7.24112558365
7744.66210938	7.25343084335
7749.58349609	7.26873731613
7754.52441406	7.28070449829
7759.48486328	7.29583597183
7764.46484375	7.30845546722
7769.46484375	7.32073402405
7774.484375	7.33369970322
7779.5234375	7.34559822083
7784.58203125	7.3567032814
7789.66015625	7.36862945557
7794.7578125	7.38117170334
7799.87548828	7.39360761642
7805.01269531	7.40665578842
7810.16943359	7.416472435
7815.34570313	7.42877483368
7820.54199219	7.44051933289
7825.75732422	7.45206356049
7830.99267578	7.46252059937
7836.24755859	7.47521448135
7841.52197266	7.48794031143
7846.81591797	7.50303268433
7852.12988281	7.51533889771
7857.46337891	7.52950239182
7862.81640625	7.54358291626
7868.18896484	7.56046867371
7873.58105469	7.57562208176
7878.99267578	7.58904695511
7884.42431641	7.60009479523
7889.87548828	7.61362838745
7895.34619141	7.62478637695
7900.83642578	7.63627910614
7906.34667969	7.64666748047
7911.87597656	7.65908670425
7917.42529297	7.66948413849
7922.99414063	7.6833357811
7928.58251953	7.69664955139
7934.19042969	7.70883846283
7939.81835938	7.72116041183
7945.46582031	7.73579406738
7951.1328125	7.74983358383
7956.81933594	7.76408052444
7962.52539063	7.78089046478
7968.25097656	7.79486751556
7973.99658203	7.81127643585
7979.76171875	7.82525539398
7985.54638672	7.84219932556
7991.35058594	7.85611391068
7997.17480469	7.87171506882
8003.01806641	7.88449525833
8008.88134766	7.89833259583
8014.76416016	7.91239118576
8020.66650391	7.92699432373
8026.58837891	7.94000387192
8032.53027344	7.9543170929
8038.49169922	7.96734762192
8044.47216797	7.98098087311
8050.47314453	7.99557590485
8056.49316406	8.01096630096
8062.53271484	8.02544784546
8068.59228516	8.04055595398
8074.67138672	8.05450630188
8080.77001953	8.06837081909
8086.88818359	8.08302783966
8093.02587891	8.09815883636
8099.18359375	8.11231422424
8105.36083984	8.12701034546
