# Averaged Data //Vboxsvr/xafsdata/Standards/mackinawite_aged_001_fl.avg created by SamView
6880.0	0.103944793344
6890.23828125	0.10621009022
6900.47607422	0.107272833586
6910.71435547	0.108868069947
6920.95214844	0.11072036624
6931.19042969	0.111953020096
6941.42871094	0.113314539194
6951.66650391	0.114789709449
6961.90478516	0.115096494555
6972.14306641	0.116731472313
6982.38085938	0.11941473186
6992.61914063	0.120548352599
7002.85693359	0.122792765498
7013.09521484	0.125057473779
7023.33349609	0.12650424242
7033.57128906	0.128661692142
7043.80957031	0.130694329739
7054.04785156	0.13339215517
7064.28564453	0.135395154357
7074.52392578	0.137520268559
7084.76171875	0.13958568871
7095.0	0.143787458539
7095.25	0.143859118223
7095.5	0.143655315042
7095.75	0.144679188728
7096.0	0.144145220518
7096.25	0.144455745816
7096.5	0.144146099687
7096.75	0.144217535853
7097.0	0.143880844116
7097.25	0.144600883126
7097.5	0.145497903228
7097.75	0.144855260849
7098.0	0.145323351026
7098.25	0.145198211074
7098.5	0.144806742668
7098.75	0.145067423582
7099.0	0.144871518016
7099.25	0.145342931151
7099.5	0.146449401975
7099.75	0.14646358788
7100.0	0.144994273782
7100.25	0.146042987704
7100.5	0.147106096148
7100.75	0.146598115563
7101.0	0.146261259913
7101.25	0.14710380137
7101.5	0.147079050541
7101.75	0.146414995193
7102.0	0.148168578744
7102.25	0.147116586566
7102.5	0.14715719223
7102.75	0.14834626019
7103.0	0.147535085678
7103.25	0.147681042552
7103.5	0.147734612226
7103.75	0.149565845728
7104.0	0.148042887449
7104.25	0.149173155427
7104.5	0.148383289576
7104.75	0.148497924209
7105.0	0.149017482996
7105.25	0.149750187993
7105.5	0.149751365185
7105.75	0.150534167886
7106.0	0.150223448873
7106.25	0.15103533864
7106.5	0.151020050049
7106.75	0.15155595541
7107.0	0.152544409037
7107.25	0.152661636472
7107.5	0.152079045773
7107.75	0.153440326452
7108.0	0.153299108148
7108.25	0.15548953414
7108.5	0.15538187325
7108.75	0.156406745315
7109.0	0.156763911247
7109.25	0.158311083913
7109.5	0.159094020724
7109.75	0.161872029305
7110.0	0.163886293769
7110.25	0.16655626893
7110.5	0.170935064554
7110.75	0.17675884068
7111.0	0.181465297937
7111.25	0.18630900979
7111.5	0.191393792629
7111.75	0.197621405125
7112.0	0.20165938139
7112.25	0.205954238772
7112.5	0.210092172027
7112.75	0.211782187223
7113.0	0.21169655025
7113.25	0.211490496993
7113.5	0.21098510921
7113.75	0.209371626377
7114.0	0.20757201314
7114.25	0.207892566919
7114.5	0.208896562457
7114.75	0.210481852293
7115.0	0.212853223085
7115.25	0.218268796802
7115.5	0.226495161653
7115.75	0.234363868833
7116.0	0.243756353855
7116.25	0.255270570517
7116.5	0.267812252045
7116.75	0.28135061264
7117.0	0.298579633236
7117.25	0.311242610216
7117.5	0.328466236591
7117.75	0.347428828478
7118.0	0.362537115812
7118.25	0.377923727036
7118.5	0.395739346743
7118.75	0.414160311222
7119.0	0.431656479836
7119.25	0.451012760401
7119.5	0.467798233032
7119.75	0.479139447212
7120.0	0.493931174278
7120.25	0.508772373199
7120.5	0.520278811455
7120.75	0.529211699963
7121.0	0.537023723125
7121.25	0.541877269745
7121.5	0.548016011715
7121.75	0.552008152008
7122.0	0.555796980858
7122.25	0.559304356575
7122.5	0.564323604107
7122.75	0.568437159061
7123.0	0.574377894402
7123.25	0.581360816956
7123.5	0.588157773018
7123.75	0.594175994396
7124.0	0.601353824139
7124.25	0.609404087067
7124.5	0.618114233017
7124.75	0.626294493675
7125.0	0.632264018059
7125.25	0.63981539011
7125.5	0.64740306139
7125.75	0.653070211411
7126.0	0.657818496227
7126.25	0.665616929531
7126.5	0.671786189079
7126.75	0.677596867085
7127.0	0.681896030903
7127.25	0.686832010746
7127.5	0.692050397396
7127.75	0.697215735912
7128.0	0.703011155128
7128.25	0.705426156521
7128.5	0.711275935173
7128.75	0.714671194553
7129.0	0.719410896301
7129.25	0.721689343452
7129.5	0.723772525787
7129.75	0.726993501186
7130.0	0.729050457478
7130.25	0.731271445751
7130.5	0.730564892292
7130.75	0.731418550014
7131.0	0.730363726616
7131.25	0.734627306461
7131.5	0.736543893814
7131.75	0.734132170677
7132.0	0.733372867107
7132.25	0.736854255199
7132.5	0.737239301205
7132.75	0.736986160278
7133.0	0.737413346767
7133.25	0.737889826298
7133.5	0.737553477287
7133.75	0.739614188671
7134.0	0.739650428295
7134.25	0.738333821297
7134.5	0.738765358925
7134.75	0.738633453846
7135.0	0.740338504314
7135.25	0.739821910858
7135.5	0.738942027092
7135.75	0.741594254971
7136.0	0.741593003273
7136.25	0.74147683382
7136.5	0.742485046387
7136.75	0.742555379868
7137.0	0.744577884674
7137.25	0.742201566696
7137.5	0.744542360306
7137.75	0.745571732521
7138.0	0.744210481644
7138.25	0.744393110275
7138.5	0.745559930801
7138.75	0.744532883167
7139.0	0.745976269245
7139.25	0.745994329453
7139.5	0.746502697468
7139.75	0.749011814594
7140.0	0.747447729111
7140.25	0.747376084328
7140.5	0.746210753918
7140.75	0.749368369579
7141.0	0.747609198093
7141.25	0.747542023659
7141.5	0.747062683105
7141.75	0.747645318508
7142.0	0.748076498508
7142.25	0.748049974442
7142.5	0.747764885426
7142.75	0.748975336552
7143.0	0.748080670834
7143.25	0.748046278954
7143.5	0.747646331787
7143.75	0.750097334385
7144.0	0.745627224445
7144.25	0.749026954174
7144.5	0.749459922314
7144.75	0.746850550175
7145.0	0.747865498066
7145.25	0.747490167618
7145.5	0.747508049011
7145.75	0.746123671532
7146.0	0.745624303818
7146.25	0.746321737766
7146.5	0.744194149971
7146.75	0.745493412018
7147.0	0.744822204113
7147.25	0.74200129509
7147.5	0.741952598095
7147.75	0.741246938705
7148.0	0.740307807922
7148.25	0.739420115948
7148.5	0.736363530159
7148.75	0.736734807491
7149.0	0.734823822975
7149.25	0.734881639481
7149.5	0.731005012989
7149.75	0.72938400507
7150.0	0.726821184158
7150.25	0.725973129272
7150.5	0.723935246468
7150.75	0.721629559994
7151.0	0.72083824873
7151.25	0.719589531422
7151.5	0.717648506165
7151.75	0.714502155781
7152.0	0.71206921339
7152.25	0.7110927701
7152.5	0.70749527216
7152.75	0.706076025963
7153.0	0.70386493206
7153.25	0.702025175095
7153.5	0.701108276844
7153.75	0.698500990868
7154.0	0.694339871407
7154.25	0.693807780743
7154.5	0.69155728817
7154.75	0.689851462841
7155.0	0.686969637871
7155.25	0.687578558922
7155.5	0.685329496861
7155.75	0.682878911495
7156.0	0.682532131672
7156.25	0.679568588734
7156.5	0.678886890411
7156.75	0.678368628025
7157.0	0.676721930504
7157.25	0.675778687
7157.5	0.674113631248
7157.75	0.673900067806
7158.0	0.671335458755
7158.25	0.670890390873
7158.5	0.669653832912
7158.75	0.667453110218
7159.0	0.666359722614
7159.25	0.66531586647
7159.5	0.667469859123
7159.75	0.665100157261
7160.0	0.663221657276
7161.09472656	0.662459790707
7162.20947266	0.662192106247
7163.34326172	0.661950588226
7164.49707031	0.662404537201
7165.67041016	0.664059877396
7166.86376953	0.664410948753
7168.07617188	0.668563842773
7169.30859375	0.671635091305
7170.56005859	0.675186693668
7171.83154297	0.682310461998
7173.12304688	0.687650442123
7174.43359375	0.694573760033
7175.76367188	0.70027834177
7177.11376953	0.707315027714
7178.48339844	0.714504778385
7179.87255859	0.721537351608
7181.28173828	0.72962808609
7182.70996094	0.736594736576
7184.15820313	0.74421775341
7185.62597656	0.751125693321
7187.11328125	0.756990849972
7188.62011719	0.758155226707
7190.14648438	0.764055609703
7191.69287109	0.765300154686
7193.25878906	0.766441464424
7194.84423828	0.765689730644
7196.44921875	0.764962673187
7198.07373047	0.763811051846
7199.71826172	0.762021362782
7201.38183594	0.758244216442
7203.06542969	0.755163609982
7204.76855469	0.750905513763
7206.49169922	0.745906352997
7208.23388672	0.74333524704
7209.99609375	0.736917555332
7211.77783203	0.731753408909
7213.57910156	0.72765225172
7215.39990234	0.72483497858
7217.24023438	0.722196519375
7219.10058594	0.720345556736
7220.98046875	0.718116641045
7222.87988281	0.718580543995
7224.79882813	0.719065070152
7226.73730469	0.7199447155
7228.69580078	0.721329748631
7230.67333984	0.724496483803
7232.67089844	0.726928889751
7234.68798828	0.730309903622
7236.72509766	0.734668552876
7238.78125	0.739970445633
7240.85742188	0.745016276836
7242.953125	0.752151548862
7245.06835938	0.75907933712
7247.203125	0.763240695
7249.35742188	0.770298182964
7251.53173828	0.774357378483
7253.72558594	0.778661489487
7255.93896484	0.780826866627
7258.171875	0.784458994865
7260.42431641	0.784676373005
7262.69677734	0.785067439079
7264.98828125	0.786172628403
7267.29980469	0.785459816456
7269.63085938	0.783523380756
7271.98193359	0.782796382904
7274.35205078	0.780860722065
7276.7421875	0.779695928097
7279.15185547	0.777758657932
7281.58105469	0.777910411358
7284.02978516	0.778667926788
7286.49804688	0.777429580688
7288.98632813	0.776411831379
7291.49414063	0.775591790676
7294.02148438	0.776253163815
7296.56835938	0.775460243225
7299.13476563	0.7765827775
7301.72119141	0.778549849987
7304.32666016	0.779882311821
7306.95214844	0.781206965446
7309.59716797	0.782958090305
7312.26220703	0.786420404911
7314.94628906	0.78854817152
7317.65039063	0.790856540203
7320.37353516	0.791461110115
7323.11669922	0.793790519238
7325.87988281	0.796558260918
7328.66210938	0.798687756062
7331.46435547	0.800885796547
7334.28564453	0.802934408188
7337.12695313	0.805449962616
7339.98828125	0.807355940342
7342.86865234	0.808935284615
7345.76855469	0.809961080551
7348.68847656	0.813188374043
7351.62792969	0.815584778786
7354.58691406	0.817564666271
7357.56542969	0.817801654339
7360.56396484	0.8205037117
7363.58154297	0.820844948292
7366.61914063	0.822574615479
7369.67626953	0.824114084244
7372.75292969	0.825039684772
7375.84960938	0.826798856258
7378.96533203	0.827412188053
7382.10107422	0.827661454678
7385.25634766	0.828262865543
7388.43115234	0.83089786768
7391.62597656	0.830193042755
7394.83984375	0.832678735256
7398.07373047	0.834641337395
7401.32714844	0.83613306284
7404.60009766	0.836923480034
7407.89257813	0.839041292667
7411.20458984	0.839919388294
7414.53662109	0.842333972454
7417.88818359	0.842926621437
7421.25927734	0.844377577305
7424.64990234	0.848326742649
7428.06005859	0.84875202179
7431.49023438	0.850744307041
7434.93994141	0.854636669159
7438.40917969	0.855754971504
7441.89794922	0.85946893692
7445.40625	0.862674713135
7448.93457031	0.864726126194
7452.48193359	0.867290258408
7456.04931641	0.868963718414
7459.63623047	0.872969150543
7463.24316406	0.874849677086
7466.86914063	0.877333164215
7470.51513672	0.879537582397
7474.18017578	0.881644487381
7477.86523438	0.882920145988
7481.5703125	0.886316895485
7485.29443359	0.886530697346
7489.03857422	0.888440430164
7492.80175781	0.891562342644
7496.58496094	0.891362190247
7500.38769531	0.893882989883
7504.21044922	0.895122230053
7508.05224609	0.89732080698
7511.9140625	0.898880243301
7515.79541016	0.900753200054
7519.69628906	0.903459429741
7523.61669922	0.904698133469
7527.55712891	0.907365202904
7531.51660156	0.909166991711
7535.49609375	0.912263393402
7539.49511719	0.915542423725
7543.51367188	0.91864156723
7547.55175781	0.922211825848
7551.60986328	0.923413157463
7555.6875	0.9266731143
7559.78466797	0.929499745369
7563.90136719	0.933022379875
7568.03759766	0.935854256153
7572.19384766	0.939716696739
7576.36914063	0.941796839237
7580.56445313	0.944294333458
7584.77929688	0.948912084103
7589.01367188	0.950345516205
7593.26806641	0.952912092209
7597.54199219	0.955419421196
7601.83496094	0.958209872246
7606.14794922	0.961740136147
7610.48046875	0.963594853878
7614.83300781	0.966637194157
7619.20458984	0.967569589615
7623.59619141	0.971810281277
7628.00732422	0.974766433239
7632.43798828	0.976598083973
7636.88818359	0.979820311069
7641.35839844	0.982636034489
7645.84814453	0.984875917435
7650.35742188	0.988134562969
7654.88623047	0.991012573242
7659.43457031	0.99484372139
7664.00244141	0.998167037964
7668.59033203	1.00064623356
7673.19775391	1.00455462933
7677.82470703	1.00707364082
7682.47119141	1.01082372665
7687.13720703	1.01487839222
7691.82324219	1.01810574532
7696.52832031	1.02194201946
7701.25341797	1.02548921108
7705.99804688	1.02790868282
7710.76269531	1.03258037567
7715.54638672	1.0358235836
7720.35009766	1.03969621658
7725.17333984	1.04256010056
7730.01611328	1.04645299911
7734.87841797	1.04926347733
7739.76025391	1.05351471901
7744.66210938	1.05775725842
7749.58349609	1.06054794788
7754.52441406	1.06453561783
7759.48486328	1.06774652004
7764.46484375	1.07099449635
7769.46484375	1.07420730591
7774.484375	1.07820296288
7779.5234375	1.08073353767
7784.58203125	1.08709299564
7789.66015625	1.08914649487
7794.7578125	1.09317970276
7799.87548828	1.09907257557
7805.01269531	1.10051178932
7810.16943359	1.1051659584
7815.34570313	1.10834288597
7820.54199219	1.11373817921
7825.75732422	1.11700165272
7830.99267578	1.12124884129
7836.24755859	1.12558102608
7841.52197266	1.12923157215
7846.81591797	1.1343023777
7852.12988281	1.13829600811
7857.46337891	1.14269804955
7862.81640625	1.14603936672
7868.18896484	1.15100681782
7873.58105469	1.15462768078
7878.99267578	1.15910220146
7884.42431641	1.16385388374
7889.87548828	1.16844928265
7895.34619141	1.17318177223
7900.83642578	1.17698729038
7906.34667969	1.18185150623
7911.87597656	1.18571317196
7917.42529297	1.19157969952
7922.99414063	1.19584369659
7928.58251953	1.20049035549
7934.19042969	1.20475578308
7939.81835938	1.20966851711
7945.46582031	1.21383726597
7951.1328125	1.21863508224
7956.81933594	1.22413611412
7962.52539063	1.22855842113
7968.25097656	1.23318588734
7973.99658203	1.23753619194
7979.76171875	1.24335086346
7985.54638672	1.24728429317
7991.35058594	1.25344085693
7997.17480469	1.25870537758
8003.01806641	1.26213848591
8008.88134766	1.26824986935
8014.76416016	1.27350521088
8020.66650391	1.27791202068
8026.58837891	1.2832865715
8032.53027344	1.28820347786
8038.49169922	1.29366004467
8044.47216797	1.29828286171
8050.47314453	1.30312108994
8056.49316406	1.3092045784
8062.53271484	1.31440281868
8068.59228516	1.31976854801
8074.67138672	1.32525479794
8080.77001953	1.33055210114
8086.88818359	1.33629930019
8093.02587891	1.34110844135
8099.18359375	1.34700119495
8105.36083984	1.35258615017
