# Averaged Data //Vboxsvr/xafsdata/Standards/mackinawite_001_fl.avg created by SamView
6880.0	0.72399276495
6890.23828125	0.729382812977
6900.47607422	0.739299416542
6910.71435547	0.751035571098
6920.95214844	0.760912656784
6931.19042969	0.769498586655
6941.42871094	0.778467237949
6951.66650391	0.78720086813
6961.90478516	0.796439290047
6972.14306641	0.806428670883
6982.38085938	0.817982792854
6992.61914063	0.834891498089
7002.85693359	0.851288199425
7013.09521484	0.867035150528
7023.33349609	0.883779108524
7033.57128906	0.90307277441
7043.80957031	0.921941876411
7054.04785156	0.949468195438
7064.28564453	0.977421998978
7074.52392578	1.01743626595
7084.76171875	1.08027040958
7095.0	1.19409096241
7095.25	1.19756829739
7095.5	1.20033359528
7095.75	1.20688807964
7096.0	1.20983278751
7096.25	1.21524000168
7096.5	1.21901738644
7096.75	1.22458386421
7097.0	1.23035812378
7097.25	1.23599207401
7097.5	1.24006390572
7097.75	1.24534273148
7098.0	1.24919915199
7098.25	1.25637233257
7098.5	1.26219320297
7098.75	1.26782608032
7099.0	1.27455437183
7099.25	1.27951538563
7099.5	1.28628015518
7099.75	1.29487371445
7100.0	1.30255818367
7100.25	1.31179428101
7100.5	1.31922888756
7100.75	1.32746887207
7101.0	1.33643364906
7101.25	1.34458458424
7101.5	1.35413479805
7101.75	1.36382043362
7102.0	1.37584972382
7102.25	1.38354921341
7102.5	1.3963342905
7102.75	1.40794634819
7103.0	1.42266714573
7103.25	1.43559646606
7103.5	1.44968080521
7103.75	1.46282935143
7104.0	1.4797077179
7104.25	1.49640858173
7104.5	1.5153491497
7104.75	1.53511631489
7105.0	1.55627453327
7105.25	1.57982897758
7105.5	1.60652160645
7105.75	1.63521659374
7106.0	1.66465127468
7106.25	1.69624435902
7106.5	1.73418843746
7106.75	1.77961802483
7107.0	1.82356452942
7107.25	1.88094818592
7107.5	1.94285666943
7107.75	2.02149534225
7108.0	2.10140705109
7108.25	2.20830154419
7108.5	2.33161592484
7108.75	2.49319291115
7109.0	2.66883420944
7109.25	2.92656111717
7109.5	3.20098829269
7109.75	3.57014727592
7110.0	3.92561793327
7110.25	4.37401723862
7110.5	4.79370880127
7110.75	5.24183940887
7111.0	5.58905935287
7111.25	5.91495037079
7111.5	6.1067109108
7111.75	6.20346260071
7112.0	6.20635461807
7112.25	6.15451526642
7112.5	6.09484004974
7112.75	6.07031202316
7113.0	6.09657526016
7113.25	6.20664739609
7113.5	6.39460229874
7113.75	6.67462873459
7114.0	7.04268074036
7114.25	7.52797365189
7114.5	8.09450531006
7114.75	8.72566509247
7115.0	9.45101261139
7115.25	10.2409715652
7115.5	11.1047792435
7115.75	11.9105596542
7116.0	12.8288841248
7116.25	13.7308521271
7116.5	14.704782486
7116.75	15.577542305
7117.0	16.5558605194
7117.25	17.4502086639
7117.5	18.3906230927
7117.75	19.1408023834
7118.0	19.9549198151
7118.25	20.6248664856
7118.5	21.2261333466
7118.75	21.6608161926
7119.0	22.07330513
7119.25	22.340215683
7119.5	22.5534133911
7119.75	22.6970748901
7120.0	22.8178577423
7120.25	22.9027442932
7120.5	23.0066165924
7120.75	23.1076583862
7121.0	23.242773056
7121.25	23.3757076263
7121.5	23.5566902161
7121.75	23.7144832611
7122.0	23.935300827
7122.25	24.1454524994
7122.5	24.3523311615
7122.75	24.5561332703
7123.0	24.787776947
7123.25	24.9853954315
7123.5	25.1855716705
7123.75	25.3654346466
7124.0	25.5700950623
7124.25	25.7433853149
7124.5	25.9145965576
7124.75	26.0549373627
7125.0	26.2122554779
7125.25	26.3727741241
7125.5	26.5058422089
7125.75	26.6249694824
7126.0	26.7514743805
7126.25	26.8706741333
7126.5	26.9823741913
7126.75	27.1052742004
7127.0	27.2016506195
7127.25	27.3060054779
7127.5	27.3848018646
7127.75	27.4775352478
7128.0	27.5587444305
7128.25	27.6314411163
7128.5	27.7020072937
7128.75	27.7811031342
7129.0	27.8500766754
7129.25	27.9187469482
7129.5	27.9826068878
7129.75	28.0434436798
7130.0	28.0917549133
7130.25	28.1679019928
7130.5	28.2149353027
7130.75	28.2869567871
7131.0	28.3599147797
7131.25	28.4250984192
7131.5	28.4891033173
7131.75	28.5546836853
7132.0	28.6238937378
7132.25	28.6883468628
7132.5	28.7303371429
7132.75	28.8063735962
7133.0	28.8593349457
7133.25	28.9037132263
7133.5	28.9511146545
7133.75	29.0011749268
7134.0	29.0425033569
7134.25	29.0774765015
7134.5	29.1307544708
7134.75	29.1665344238
7135.0	29.20495224
7135.25	29.2464065552
7135.5	29.2840538025
7135.75	29.3244457245
7136.0	29.3639221191
7136.25	29.4045276642
7136.5	29.4418125153
7136.75	29.4893321991
7137.0	29.5309677124
7137.25	29.5697479248
7137.5	29.6174144745
7137.75	29.6616630554
7138.0	29.6958618164
7138.25	29.7350959778
7138.5	29.7745704651
7138.75	29.7944774628
7139.0	29.8316345215
7139.25	29.8595199585
7139.5	29.9053707123
7139.75	29.9307975769
7140.0	29.975315094
7140.25	30.0050449371
7140.5	30.0378131866
7140.75	30.0708599091
7141.0	30.1107330322
7141.25	30.1272907257
7141.5	30.1644668579
7141.75	30.1914749146
7142.0	30.229391098
7142.25	30.2595691681
7142.5	30.2856426239
7142.75	30.3002262115
7143.0	30.3238277435
7143.25	30.3393745422
7143.5	30.3605613708
7143.75	30.3813896179
7144.0	30.4112052917
7144.25	30.4163780212
7144.5	30.4222126007
7144.75	30.4493236542
7145.0	30.4420776367
7145.25	30.4294223785
7145.5	30.4155807495
7145.75	30.4174385071
7146.0	30.4043369293
7146.25	30.3907337189
7146.5	30.3552246094
7146.75	30.309129715
7147.0	30.2626571655
7147.25	30.2319793701
7147.5	30.1711425781
7147.75	30.1168079376
7148.0	30.0636043549
7148.25	30.0094738007
7148.5	29.9517211914
7148.75	29.8962135315
7149.0	29.7912082672
7149.25	29.7181434631
7149.5	29.6590023041
7149.75	29.5837421417
7150.0	29.5084686279
7150.25	29.438035965
7150.5	29.3671512604
7150.75	29.3057785034
7151.0	29.2360534668
7151.25	29.1681346893
7151.5	29.092250824
7151.75	29.0123691559
7152.0	28.9557857513
7152.25	28.8607883453
7152.5	28.7873439789
7152.75	28.7181377411
7153.0	28.6520652771
7153.25	28.5886325836
7153.5	28.5216388702
7153.75	28.4584541321
7154.0	28.3972816467
7154.25	28.3388538361
7154.5	28.2741470337
7154.75	28.217048645
7155.0	28.1661319733
7155.25	28.1203575134
7155.5	28.0706043243
7155.75	28.0264625549
7156.0	27.9962768555
7156.25	27.943523407
7156.5	27.8913803101
7156.75	27.8660793304
7157.0	27.8119907379
7157.25	27.7871055603
7157.5	27.7495441437
7157.75	27.7291927338
7158.0	27.6877822876
7158.25	27.6555194855
7158.5	27.640504837
7158.75	27.6214637756
7159.0	27.6126995087
7159.25	27.5903072357
7159.5	27.5794906616
7159.75	27.5685138702
7160.0	27.5624332428
7161.09472656	27.5197944641
7162.20947266	27.4967288971
7163.34326172	27.4808692932
7164.49707031	27.4622192383
7165.67041016	27.4648685455
7166.86376953	27.4674663544
7168.07617188	27.4958515167
7169.30859375	27.5335960388
7170.56005859	27.6082878113
7171.83154297	27.6780548096
7173.12304688	27.7587146759
7174.43359375	27.8695335388
7175.76367188	28.0302505493
7177.11376953	28.2445278168
7178.48339844	28.5222969055
7179.87255859	28.8518352509
7181.28173828	29.218038559
7182.70996094	29.6031208038
7184.15820313	29.981092453
7185.62597656	30.3190193176
7187.11328125	30.6065826416
7188.62011719	30.8469772339
7190.14648438	31.0130405426
7191.69287109	31.1226596832
7193.25878906	31.1755905151
7194.84423828	31.1971416473
7196.44921875	31.1827354431
7198.07373047	31.1249885559
7199.71826172	31.0381832123
7201.38183594	30.9131755829
7203.06542969	30.7549171448
7204.76855469	30.5708274841
7206.49169922	30.3763160706
7208.23388672	30.1716651917
7209.99609375	29.9826221466
7211.77783203	29.7829360962
7213.57910156	29.5863075256
7215.39990234	29.3824176788
7217.24023438	29.1854457855
7219.10058594	29.0045070648
7220.98046875	28.8678379059
7222.87988281	28.7556800842
7224.79882813	28.7027320862
7226.73730469	28.6923732758
7228.69580078	28.7240333557
7230.67333984	28.8043766022
7232.67089844	28.9302177429
7234.68798828	29.1042575836
7236.72509766	29.3078212738
7238.78125	29.5312347412
7240.85742188	29.7675552368
7242.953125	30.0131587982
7245.06835938	30.2616024017
7247.203125	30.5123844147
7249.35742188	30.7607727051
7251.53173828	31.0270385742
7253.72558594	31.2920379639
7255.93896484	31.4075660706
7258.171875	31.5876407623
7260.42431641	31.7547664642
7262.69677734	31.4868125916
7264.98828125	31.7132472992
7267.29980469	31.6609230042
7269.63085938	31.569940567
7271.98193359	31.4428768158
7274.35205078	31.2899360657
7276.7421875	31.1193580627
7279.15185547	30.9436779022
7281.58105469	30.7972106934
7284.02978516	30.6958656311
7286.49804688	30.6276397705
7288.98632813	30.606508255
7291.49414063	30.6186733246
7294.02148438	30.6441955566
7296.56835938	30.6844444275
7299.13476563	30.706407547
7301.72119141	30.7356758118
7304.32666016	30.7517948151
7306.95214844	30.7598419189
7309.59716797	30.7807598114
7312.26220703	30.7959976196
7314.94628906	30.8231220245
7317.65039063	30.8631134033
7320.37353516	30.9549694061
7323.11669922	31.0924053192
7325.87988281	31.271320343
7328.66210938	31.4552879333
7331.46435547	31.6304512024
7334.28564453	31.796081543
7337.12695313	31.9288692474
7339.98828125	32.0335693359
7342.86865234	32.0978736877
7345.76855469	32.1153564453
7348.68847656	32.0867156982
7351.62792969	32.0421295166
7354.58691406	31.9980678558
7357.56542969	31.9800071716
7360.56396484	31.98412323
7363.58154297	31.9823436737
7366.61914063	32.0008239746
7369.67626953	32.0001335144
7372.75292969	32.0011291504
7375.84960938	31.9965419769
7378.96533203	31.9984359741
7382.10107422	32.0178489685
7385.25634766	32.0211868286
7388.43115234	32.0338745117
7391.62597656	32.0583267212
7394.83984375	32.0935325623
7398.07373047	32.1422271729
7401.32714844	32.1909446716
7404.60009766	32.2606048584
7407.89257813	32.33360672
7411.20458984	32.4225997925
7414.53662109	32.5020294189
7417.88818359	32.5808410645
7421.25927734	32.6512298584
7424.64990234	32.683177948
7428.06005859	32.7213172913
7431.49023438	32.7371139526
7434.93994141	32.7624130249
7438.40917969	32.8018493652
7441.89794922	32.8544998169
7445.40625	32.9158287048
7448.93457031	32.974811554
7452.48193359	33.0418968201
7456.04931641	33.1074752808
7459.63623047	33.16639328
7463.24316406	33.2155036926
7466.86914063	33.2648658752
7470.51513672	33.3202972412
7474.18017578	33.3785095215
7477.86523438	33.4351882935
7481.5703125	33.4795417786
7485.29443359	33.5354232788
7489.03857422	33.5763053894
7492.80175781	33.6177711487
7496.58496094	33.6642189026
7500.38769531	33.7054595947
7504.21044922	33.7516021729
7508.05224609	33.8130264282
7511.9140625	33.8649139404
7515.79541016	33.9577445984
7519.69628906	33.9752807617
7523.61669922	34.0144996643
7527.55712891	34.0526390076
7531.51660156	34.0912208557
7535.49609375	34.1498718262
7539.49511719	34.175579071
7543.51367188	34.2328948975
7547.55175781	34.289024353
7551.60986328	34.3585395813
7555.6875	34.4266700745
7559.78466797	34.5005340576
7563.90136719	34.5805282593
7568.03759766	34.6401634216
7572.19384766	34.7165374756
7576.36914063	34.7969894409
7580.56445313	34.8586959839
7584.77929688	34.929359436
7589.01367188	34.9977455139
7593.26806641	35.0662498474
7597.54199219	35.1396789551
7601.83496094	35.2178192139
7606.14794922	35.2945632935
7610.48046875	35.3796615601
7614.83300781	35.4671134949
7619.20458984	35.5485420227
7623.59619141	35.587677002
7628.00732422	36.0323257446
7632.43798828	35.7003364563
7636.88818359	35.8355407715
7641.35839844	35.8428955078
7645.84814453	35.8745307922
7650.35742188	35.9314346313
7654.88623047	35.9782028198
7659.43457031	36.0362586975
7664.00244141	36.1026039124
7668.59033203	36.1771240234
7673.19775391	36.2425498962
7677.82470703	36.340713501
7682.47119141	36.411693573
7687.13720703	36.4891853333
7691.82324219	36.5754127502
7696.52832031	36.6575393677
7701.25341797	36.7313652039
7705.99804688	36.8143997192
7710.76269531	36.8887672424
7715.54638672	36.9821853638
7720.35009766	37.0748977661
7725.17333984	37.1698150635
7730.01611328	37.2551612854
7734.87841797	37.346622467
7739.76025391	37.4422607422
7744.66210938	37.5241317749
7749.58349609	37.6032485962
7754.52441406	37.6864585876
7759.48486328	37.7540626526
7764.46484375	37.8379554749
7769.46484375	37.9252662659
7774.484375	38.0117225647
7779.5234375	38.0880470276
7784.58203125	38.1341209412
7789.66015625	38.2053833008
7794.7578125	38.2662887573
7799.87548828	38.3372840881
7805.01269531	38.4242401123
7810.16943359	38.4948921204
7815.34570313	38.5604820251
7820.54199219	38.6739578247
7825.75732422	38.7486000061
7830.99267578	38.8466835022
7836.24755859	38.9490737915
7841.52197266	39.052154541
7846.81591797	39.1600379944
7852.12988281	39.2414321899
7857.46337891	39.3320503235
7862.81640625	39.4263763428
7868.18896484	39.5262870789
7873.58105469	39.6233787537
7878.99267578	39.7219657898
7884.42431641	39.8225364685
7889.87548828	39.919467926
7895.34619141	40.0376625061
7900.83642578	40.1139259338
7906.34667969	40.2050819397
7911.87597656	40.3082275391
7917.42529297	40.403678894
7922.99414063	40.4924201965
7928.58251953	40.5940628052
7934.19042969	40.6634216309
7939.81835938	40.7322463989
7945.46582031	40.7976036072
7951.1328125	40.8233985901
7956.81933594	40.8749694824
7962.52539063	40.957069397
7968.25097656	41.0135192871
7973.99658203	41.0943984985
7979.76171875	41.0969047546
7985.54638672	41.1111907959
7991.35058594	41.1278991699
7997.17480469	41.1405944824
8003.01806641	41.1389122009
8008.88134766	41.1650543213
8014.76416016	41.1822814941
8020.66650391	41.2421073914
8026.58837891	41.3217124939
8032.53027344	41.2662849426
8038.49169922	41.2692527771
8044.47216797	41.3075027466
8050.47314453	41.3615379333
8056.49316406	41.3665466309
8062.53271484	-0.0201554056257
8068.59228516	0.391980439425
8074.67138672	0.800893604755
8080.77001953	1.20118975639
8086.88818359	1.59845650196
8093.02587891	1.98755884171
8099.18359375	2.37732410431
8105.36083984	2.75199890137
