# Averaged Data //Vboxsvr/xafsdata/Standards/magnetite_s_001_fl.avg created by SamView
6880.0	0.0579609796405
6890.23828125	0.0555912181735
6900.47607422	0.0527199395001
6910.71435547	0.0503559373319
6920.95214844	0.0479473993182
6931.19042969	0.04603844136
6941.42871094	0.0436851680279
6951.66650391	0.0421253331006
6961.90478516	0.0409454740584
6972.14306641	0.0392283685505
6982.38085938	0.0376632064581
6992.61914063	0.0365901999176
7002.85693359	0.0356758348644
7013.09521484	0.0346675366163
7023.33349609	0.0342837423086
7033.57128906	0.0339644625783
7043.80957031	0.0340767130256
7054.04785156	0.0352243818343
7064.28564453	0.0366823300719
7074.52392578	0.0393560826778
7084.76171875	0.044158000499
7095.0	0.0544170960784
7095.25	0.0546445734799
7095.5	0.0551495440304
7095.75	0.0554321482778
7096.0	0.0558243095875
7096.25	0.056303024292
7096.5	0.0565083101392
7096.75	0.0570093020797
7097.0	0.0574448630214
7097.25	0.0580174922943
7097.5	0.0581145919859
7097.75	0.0584439821541
7098.0	0.0590355917811
7098.25	0.0596851408482
7098.5	0.0600727200508
7098.75	0.0607587844133
7099.0	0.0615895539522
7099.25	0.0618213862181
7099.5	0.062530323863
7099.75	0.0628206506371
7100.0	0.0631228387356
7100.25	0.0641548782587
7100.5	0.0644943639636
7100.75	0.0656069591641
7101.0	0.0657197833061
7101.25	0.0665493682027
7101.5	0.0672327280045
7101.75	0.0679834485054
7102.0	0.0687714517117
7102.25	0.0696641802788
7102.5	0.070241227746
7102.75	0.0711958408356
7103.0	0.0724478214979
7103.25	0.0729297101498
7103.5	0.0735291093588
7103.75	0.0747597068548
7104.0	0.0753603279591
7104.25	0.0765014365315
7104.5	0.0775882825255
7104.75	0.0788258612156
7105.0	0.0798099413514
7105.25	0.0814283043146
7105.5	0.0822188034654
7105.75	0.0834804549813
7106.0	0.0849399417639
7106.25	0.0862402841449
7106.5	0.0878381282091
7106.75	0.0890478640795
7107.0	0.0914629548788
7107.25	0.0928672030568
7107.5	0.0950988978148
7107.75	0.0974083542824
7108.0	0.100269719958
7108.25	0.102010838687
7108.5	0.105258665979
7108.75	0.108151517808
7109.0	0.112739339471
7109.25	0.116189584136
7109.5	0.121193252504
7109.75	0.12751942873
7110.0	0.134825214744
7110.25	0.143206253648
7110.5	0.154625356197
7110.75	0.167078822851
7111.0	0.185640916228
7111.25	0.2035805583
7111.5	0.229147449136
7111.75	0.256558567286
7112.0	0.28973120451
7112.25	0.31926420331
7112.5	0.35449591279
7112.75	0.385731518269
7113.0	0.414780288935
7113.25	0.433748781681
7113.5	0.447077721357
7113.75	0.447590917349
7114.0	0.43905594945
7114.25	0.428466260433
7114.5	0.415333420038
7114.75	0.40614181757
7115.0	0.398592412472
7115.25	0.394889563322
7115.5	0.395056664944
7115.75	0.398954331875
7116.0	0.406721234322
7116.25	0.418127447367
7116.5	0.434156149626
7116.75	0.45365357399
7117.0	0.477913349867
7117.25	0.505964577198
7117.5	0.541705846786
7117.75	0.582234025002
7118.0	0.627442121506
7118.25	0.67988306284
7118.5	0.740275979042
7118.75	0.807437598705
7119.0	0.875758767128
7119.25	0.960268259048
7119.5	1.04475212097
7119.75	1.1381098032
7120.0	1.22718369961
7120.25	1.32591724396
7120.5	1.42153990269
7120.75	1.52227318287
7121.0	1.60853946209
7121.25	1.70457172394
7121.5	1.79079318047
7121.75	1.88712370396
7122.0	1.96545875072
7122.25	2.06163764
7122.5	2.15022969246
7122.75	2.24704313278
7123.0	2.32688832283
7123.25	2.42936849594
7123.5	2.51900291443
7123.75	2.61343288422
7124.0	2.69221615791
7124.25	2.78356647491
7124.5	2.86222195625
7124.75	2.94109797478
7125.0	3.00598168373
7125.25	3.07618236542
7125.5	3.13946080208
7125.75	3.19743824005
7126.0	3.25173640251
7126.25	3.31115627289
7126.5	3.36322951317
7126.75	3.42518281937
7127.0	3.48119115829
7127.25	3.54789113998
7127.5	3.6088078022
7127.75	3.67300367355
7128.0	3.73489332199
7128.25	3.80160021782
7128.5	3.86207413673
7128.75	3.91733956337
7129.0	3.96493268013
7129.25	4.01471281052
7129.5	4.05062103271
7129.75	4.07806491852
7130.0	4.09660577774
7130.25	4.11064815521
7130.5	4.11628007889
7130.75	4.11282157898
7131.0	4.11134815216
7131.25	4.09910202026
7131.5	4.08631086349
7131.75	4.07030296326
7132.0	4.04893541336
7132.25	4.02282619476
7132.5	4.00030326843
7132.75	3.97247838974
7133.0	3.94235372543
7133.25	3.91480565071
7133.5	3.88513493538
7133.75	3.85725641251
7134.0	3.83154368401
7134.25	3.80343651772
7134.5	3.77676749229
7134.75	3.76162648201
7135.0	3.73798108101
7135.25	3.71895813942
7135.5	3.705483675
7135.75	3.69214916229
7136.0	3.67690014839
7136.25	3.67015194893
7136.5	3.65864467621
7136.75	3.65106654167
7137.0	3.64292144775
7137.25	3.63117909431
7137.5	3.62221932411
7137.75	3.6110522747
7138.0	3.60396647453
7138.25	3.59212422371
7138.5	3.58472084999
7138.75	3.56864786148
7139.0	3.55879044533
7139.25	3.54332995415
7139.5	3.53582549095
7139.75	3.52374649048
7140.0	3.5101351738
7140.25	3.50090360641
7140.5	3.49192118645
7140.75	3.48431754112
7141.0	3.47751832008
7141.25	3.46899533272
7141.5	3.47039341927
7141.75	3.46442723274
7142.0	3.46447253227
7142.25	3.46526932716
7142.5	3.46622896194
7142.75	3.46862459183
7143.0	3.46541976929
7143.25	3.4731695652
7143.5	3.47745752335
7143.75	3.47564506531
7144.0	3.48086881638
7144.25	3.4861907959
7144.5	3.48433470726
7144.75	3.48440003395
7145.0	3.48243284225
7145.25	3.4808204174
7145.5	3.48007178307
7145.75	3.47607946396
7146.0	3.46892166138
7146.25	3.46267676353
7146.5	3.45276045799
7146.75	3.44023180008
7147.0	3.42886090279
7147.25	3.41204595566
7147.5	3.40080499649
7147.75	3.37946176529
7148.0	3.36353516579
7148.25	3.34322023392
7148.5	3.32748293877
7148.75	3.30758404732
7149.0	3.2889893055
7149.25	3.2709877491
7149.5	3.25711393356
7149.75	3.24111628532
7150.0	3.22949004173
7150.25	3.21340799332
7150.5	3.20233654976
7150.75	3.18717718124
7151.0	3.17791891098
7151.25	3.16492128372
7151.5	3.15680503845
7151.75	3.15002155304
7152.0	3.13842368126
7152.25	3.13316822052
7152.5	3.12867546082
7152.75	3.11876273155
7153.0	3.11092829704
7153.25	3.10345411301
7153.5	3.10021233559
7153.75	3.09089136124
7154.0	3.08719325066
7154.25	3.07747769356
7154.5	3.0712826252
7154.75	3.0645339489
7155.0	3.06029486656
7155.25	3.05503869057
7155.5	3.04416298866
7155.75	3.04015111923
7156.0	3.03289818764
7156.25	3.02609181404
7156.5	3.01958155632
7156.75	3.01240491867
7157.0	3.00980257988
7157.25	3.00215864182
7157.5	2.99585676193
7157.75	2.99289035797
7158.0	2.98890328407
7158.25	2.98543548584
7158.5	2.98249864578
7158.75	2.98097515106
7159.0	2.97762537003
7159.25	2.97546100616
7159.5	2.97405362129
7159.75	2.97539329529
7160.0	2.97719025612
7161.09472656	2.98236489296
7162.20947266	2.9950261116
7163.34326172	3.0105779171
7164.49707031	3.03050541878
7165.67041016	3.05462002754
7166.86376953	3.0820775032
7168.07617188	3.11837816238
7169.30859375	3.15585947037
7170.56005859	3.19990944862
7171.83154297	3.24496483803
7173.12304688	3.28886175156
7174.43359375	3.32659435272
7175.76367188	3.35946655273
7177.11376953	3.39157247543
7178.48339844	3.42746186256
7179.87255859	3.46288061142
7181.28173828	3.48819828033
7182.70996094	3.50221300125
7184.15820313	3.50667905807
7185.62597656	3.50312042236
7187.11328125	3.49571061134
7188.62011719	3.48688650131
7190.14648438	3.47776460648
7191.69287109	3.46462607384
7193.25878906	3.44677472115
7194.84423828	3.42454695702
7196.44921875	3.40309119225
7198.07373047	3.38022780418
7199.71826172	3.35645723343
7201.38183594	3.33141064644
7203.06542969	3.30731534958
7204.76855469	3.28927636147
7206.49169922	3.27565693855
7208.23388672	3.27081847191
7209.99609375	3.27131819725
7211.77783203	3.28043437004
7213.57910156	3.29141426086
7215.39990234	3.30613541603
7217.24023438	3.32367134094
7219.10058594	3.34594202042
7220.98046875	3.36555290222
7222.87988281	3.38466978073
7224.79882813	3.39989185333
7226.73730469	3.40804958344
7228.69580078	3.40913367271
7230.67333984	3.40683364868
7232.67089844	3.3933763504
7234.68798828	3.37773489952
7236.72509766	3.35813522339
7238.78125	3.33202338219
7240.85742188	3.30377030373
7242.953125	3.27756762505
7245.06835938	3.25937891006
7247.203125	3.25301837921
7249.35742188	3.26111483574
7251.53173828	3.27971172333
7253.72558594	3.3003692627
7255.93896484	3.35705780983
7258.171875	3.35525965691
7260.42431641	3.3878903389
7262.69677734	3.42746710777
7264.98828125	3.43788409233
7267.29980469	3.45340633392
7269.63085938	3.46103215218
7271.98193359	3.46519517899
7274.35205078	3.46531891823
7276.7421875	3.46492815018
7279.15185547	3.46310257912
7281.58105469	3.45649600029
7284.02978516	3.44699144363
7286.49804688	3.43039011955
7288.98632813	3.41074585915
7291.49414063	3.39219236374
7294.02148438	3.37862300873
7296.56835938	3.36965036392
7299.13476563	3.36441040039
7301.72119141	3.35885071754
7304.32666016	3.35064268112
7306.95214844	3.34450888634
7309.59716797	3.34434986115
7312.26220703	3.34949588776
7314.94628906	3.36063313484
7317.65039063	3.37493062019
7320.37353516	3.39242458344
7323.11669922	3.40931725502
7325.87988281	3.42501568794
7328.66210938	3.4358227253
7331.46435547	3.43893885612
7334.28564453	3.43640160561
7337.12695313	3.42918229103
7339.98828125	3.42506432533
7342.86865234	3.41396021843
7345.76855469	3.40731716156
7348.68847656	3.39820599556
7351.62792969	3.39424657822
7354.58691406	3.39130330086
7357.56542969	3.39030528069
7360.56396484	3.3929476738
7363.58154297	3.39691638947
7366.61914063	3.40435266495
7369.67626953	3.4117295742
7372.75292969	3.41633105278
7375.84960938	3.41983318329
7378.96533203	3.42094254494
7382.10107422	3.41919612885
7385.25634766	3.41813445091
7388.43115234	3.42266988754
7391.62597656	3.42832350731
7394.83984375	3.43301439285
7398.07373047	3.43807721138
7401.32714844	3.43798303604
7404.60009766	3.43756604195
7407.89257813	3.43620061874
7411.20458984	3.43355441093
7414.53662109	3.43224310875
7417.88818359	3.42785048485
7421.25927734	3.42632174492
7424.64990234	3.42438149452
7428.06005859	3.42462706566
7431.49023438	3.42454695702
7434.93994141	3.42413783073
7438.40917969	3.42570090294
7441.89794922	3.42859745026
7445.40625	3.43529200554
7448.93457031	3.44056773186
7452.48193359	3.44700622559
7456.04931641	3.45032453537
7459.63623047	3.44998764992
7463.24316406	3.45039963722
7466.86914063	3.44611525536
7470.51513672	3.44436955452
7474.18017578	3.44359755516
7477.86523438	3.44598054886
7481.5703125	3.44729471207
7485.29443359	3.45083904266
7489.03857422	3.45127463341
7492.80175781	3.45135307312
7496.58496094	3.45431566238
7500.38769531	3.45690774918
7504.21044922	3.45868825912
7508.05224609	3.46243047714
7511.9140625	3.46338510513
7515.79541016	3.46601748466
7519.69628906	3.46679067612
7523.61669922	3.47002768517
7527.55712891	3.47289776802
7531.51660156	3.47135400772
7535.49609375	3.47493815422
7539.49511719	3.47619986534
7543.51367188	3.47706818581
7547.55175781	3.47505331039
7551.60986328	3.47545218468
7555.6875	3.47702312469
7559.78466797	3.47563409805
7563.90136719	3.47814488411
7568.03759766	3.48030996323
7572.19384766	3.48268032074
7576.36914063	3.48594522476
7580.56445313	3.4871263504
7584.77929688	3.48751330376
7589.01367188	3.49196910858
7593.26806641	3.49692320824
7597.54199219	3.50052165985
7601.83496094	3.50401639938
7606.14794922	3.50553774834
7610.48046875	3.50822639465
7614.83300781	3.50947904587
7619.20458984	3.51074099541
7623.59619141	3.51295208931
7628.00732422	3.52956342697
7632.43798828	3.54698038101
7636.88818359	3.50440645218
7641.35839844	3.50891256332
7645.84814453	3.51017022133
7650.35742188	3.51317739487
7654.88623047	3.51421093941
7659.43457031	3.51576352119
7664.00244141	3.51854491234
7668.59033203	3.52120876312
7673.19775391	3.52413868904
7677.82470703	3.52770829201
7682.47119141	3.5304877758
7687.13720703	3.53300261497
7691.82324219	3.53657388687
7696.52832031	3.53914952278
7701.25341797	3.54045724869
7705.99804688	3.54397821426
7710.76269531	3.54517459869
7715.54638672	3.54599070549
7720.35009766	3.54566192627
7725.17333984	3.54826235771
7730.01611328	3.55009555817
7734.87841797	3.55141782761
7739.76025391	3.55227708817
7744.66210938	3.55395627022
7749.58349609	3.55601191521
7754.52441406	3.55747485161
7759.48486328	3.56040549278
7764.46484375	3.56300997734
7769.46484375	3.56530284882
7774.484375	3.5682091713
7779.5234375	3.56998682022
7784.58203125	3.57291173935
7789.66015625	3.57379817963
7794.7578125	3.57746887207
7799.87548828	3.58039236069
7805.01269531	3.58275961876
7810.16943359	3.58308815956
7815.34570313	3.58512234688
7820.54199219	3.58679318428
7825.75732422	3.58878898621
7830.99267578	3.59059166908
7836.24755859	3.59109425545
7841.52197266	3.59286403656
7846.81591797	3.59488463402
7852.12988281	3.59540200233
7857.46337891	3.59820008278
7862.81640625	3.59928798676
7868.18896484	3.60158157349
7873.58105469	3.60360002518
7878.99267578	3.60597085953
7884.42431641	3.6092736721
7889.87548828	3.61212611198
7895.34619141	3.61498880386
7900.83642578	3.61602163315
7906.34667969	3.61822748184
7911.87597656	3.62098908424
7917.42529297	3.62388801575
7922.99414063	3.62618732452
7928.58251953	3.62733888626
7934.19042969	3.62982678413
7939.81835938	3.6305077076
7945.46582031	3.63309288025
7951.1328125	3.63583946228
7956.81933594	3.63770413399
7962.52539063	3.64007210732
7968.25097656	3.64238572121
7973.99658203	3.64479899406
7979.76171875	3.64591908455
7985.54638672	3.64913511276
7991.35058594	3.65185379982
7997.17480469	3.65420341492
8003.01806641	3.65509343147
8008.88134766	3.6574716568
8014.76416016	3.65869379044
8020.66650391	3.6621119976
8026.58837891	3.66411399841
8032.53027344	3.66615200043
8038.49169922	3.66781783104
8044.47216797	3.6689286232
8050.47314453	3.67089509964
8056.49316406	3.67298150063
8062.53271484	3.67484045029
8068.59228516	3.67745614052
8074.67138672	3.67921543121
8080.77001953	3.68111205101
8086.88818359	3.68266010284
8093.02587891	3.68419528008
8099.18359375	3.68757176399
8105.36083984	3.68922567368
