# Averaged Data //Vboxsvr/xafsdata/Standards/magnetite_n_001_fl.avg created by SamView
6880.0	0.097685649991
6890.23828125	0.0977526381612
6900.47607422	0.098065264523
6910.71435547	0.0990349799395
6920.95214844	0.0992608144879
6931.19042969	0.099273018539
6941.42871094	0.100153565407
6951.66650391	0.0999916493893
6961.90478516	0.100338339806
6972.14306641	0.100758619606
6982.38085938	0.101017564535
6992.61914063	0.101401209831
7002.85693359	0.102538898587
7013.09521484	0.103508301079
7023.33349609	0.10400646925
7033.57128906	0.105005726218
7043.80957031	0.106061071157
7054.04785156	0.107264518738
7064.28564453	0.109355643392
7074.52392578	0.111409790814
7084.76171875	0.114779911935
7095.0	0.12021561712
7095.25	0.120807729661
7095.5	0.120848365128
7095.75	0.121015921235
7096.0	0.121394686401
7096.25	0.121346794069
7096.5	0.121544755995
7096.75	0.121484979987
7097.0	0.122227221727
7097.25	0.122595906258
7097.5	0.122435547411
7097.75	0.122962594032
7098.0	0.123395495117
7098.25	0.123574092984
7098.5	0.123713485897
7098.75	0.123796872795
7099.0	0.124079056084
7099.25	0.124629370868
7099.5	0.12457498163
7099.75	0.124924048781
7100.0	0.125387594104
7100.25	0.125619038939
7100.5	0.12603443861
7100.75	0.126024737954
7101.0	0.126369297504
7101.25	0.126703679562
7101.5	0.127037346363
7101.75	0.127691790462
7102.0	0.128192618489
7102.25	0.128233715892
7102.5	0.128936365247
7102.75	0.129139795899
7103.0	0.129451274872
7103.25	0.129987195134
7103.5	0.131004288793
7103.75	0.131300672889
7104.0	0.131477072835
7104.25	0.132213354111
7104.5	0.132681325078
7104.75	0.133092999458
7105.0	0.133858904243
7105.25	0.134344637394
7105.5	0.135342091322
7105.75	0.135884970427
7106.0	0.136506035924
7106.25	0.137342080474
7106.5	0.138217121363
7106.75	0.138739421964
7107.0	0.14019562304
7107.25	0.141033515334
7107.5	0.142064109445
7107.75	0.14346562326
7108.0	0.144770309329
7108.25	0.146186351776
7108.5	0.148191824555
7108.75	0.149679809809
7109.0	0.15213008225
7109.25	0.154845833778
7109.5	0.158271923661
7109.75	0.162493363023
7110.0	0.167340517044
7110.25	0.172670602798
7110.5	0.180324330926
7110.75	0.187661424279
7111.0	0.19830545783
7111.25	0.209691360593
7111.5	0.223260983825
7111.75	0.236480474472
7112.0	0.251863032579
7112.25	0.265071541071
7112.5	0.276701629162
7112.75	0.284730821848
7113.0	0.290120840073
7113.25	0.291363716125
7113.5	0.288908928633
7113.75	0.284695416689
7114.0	0.280523389578
7114.25	0.277016460896
7114.5	0.275011450052
7114.75	0.273672014475
7115.0	0.274031609297
7115.25	0.276088923216
7115.5	0.279355198145
7115.75	0.284009486437
7116.0	0.291481852531
7116.25	0.300645321608
7116.5	0.31091722846
7116.75	0.324564188719
7117.0	0.340299665928
7117.25	0.358329564333
7117.5	0.376256883144
7117.75	0.400310665369
7118.0	0.425309807062
7118.25	0.455787658691
7118.5	0.484393507242
7118.75	0.520353794098
7119.0	0.55300372839
7119.25	0.591858625412
7119.5	0.626776397228
7119.75	0.667285501957
7120.0	0.701295614243
7120.25	0.738922774792
7120.5	0.77003133297
7120.75	0.805405437946
7121.0	0.835090041161
7121.25	0.867858529091
7121.5	0.895179927349
7121.75	0.928868830204
7122.0	0.959157586098
7122.25	0.990967035294
7122.5	1.02169752121
7122.75	1.0577930212
7123.0	1.09141242504
7123.25	1.12604045868
7123.5	1.15901887417
7123.75	1.19057369232
7124.0	1.21860277653
7124.25	1.24486970901
7124.5	1.26846694946
7124.75	1.28916740417
7125.0	1.30768048763
7125.25	1.32711243629
7125.5	1.3407381773
7125.75	1.3577593565
7126.0	1.37331449986
7126.25	1.38992440701
7126.5	1.40822839737
7126.75	1.42717826366
7127.0	1.44965982437
7127.25	1.46871435642
7127.5	1.48991727829
7127.75	1.51238286495
7128.0	1.53460562229
7128.25	1.55360019207
7128.5	1.57095050812
7128.75	1.5858092308
7129.0	1.59638941288
7129.25	1.60591089725
7129.5	1.61054778099
7129.75	1.61251914501
7130.0	1.61165261269
7130.25	1.60661101341
7130.5	1.6012686491
7130.75	1.59371387959
7131.0	1.58593702316
7131.25	1.57725858688
7131.5	1.56627702713
7131.75	1.55762267113
7132.0	1.54610002041
7132.25	1.53734755516
7132.5	1.52466619015
7132.75	1.51599085331
7133.0	1.50414025784
7133.25	1.49578523636
7133.5	1.48446059227
7133.75	1.47729611397
7134.0	1.46966016293
7134.25	1.46309149265
7134.5	1.45552182198
7134.75	1.45103168488
7135.0	1.44541656971
7135.25	1.44175887108
7135.5	1.43739330769
7135.75	1.43295836449
7136.0	1.4302573204
7136.25	1.42661368847
7136.5	1.42364752293
7136.75	1.42020237446
7137.0	1.41819727421
7137.25	1.41462755203
7137.5	1.41126537323
7137.75	1.40861392021
7138.0	1.40535342693
7138.25	1.40218651295
7138.5	1.39845991135
7138.75	1.39606022835
7139.0	1.39123678207
7139.25	1.38819122314
7139.5	1.38679635525
7139.75	1.38437998295
7140.0	1.38178038597
7140.25	1.38163018227
7140.5	1.37964618206
7140.75	1.37982821465
7141.0	1.38007128239
7141.25	1.37997698784
7141.5	1.38126444817
7141.75	1.3824877739
7142.0	1.38170969486
7142.25	1.38369262218
7142.5	1.38452577591
7142.75	1.3851544857
7143.0	1.38680541515
7143.25	1.38733613491
7143.5	1.38820779324
7143.75	1.3879853487
7144.0	1.38762974739
7144.25	1.38744533062
7144.5	1.38605844975
7144.75	1.38438045979
7145.0	1.3824198246
7145.25	1.3799507618
7145.5	1.37655925751
7145.75	1.37331616879
7146.0	1.37005376816
7146.25	1.36457538605
7146.5	1.36002027988
7146.75	1.3538312912
7147.0	1.35034799576
7147.25	1.34378397465
7147.5	1.33636009693
7147.75	1.33010709286
7148.0	1.32484447956
7148.25	1.31906414032
7148.5	1.31382203102
7148.75	1.30701696873
7149.0	1.30184471607
7149.25	1.29855072498
7149.5	1.29362571239
7149.75	1.2886646986
7150.0	1.28638720512
7150.25	1.28230595589
7150.5	1.27802991867
7150.75	1.27614760399
7151.0	1.27343773842
7151.25	1.27042710781
7151.5	1.26809108257
7151.75	1.26543712616
7152.0	1.26365709305
7152.25	1.26235580444
7152.5	1.26038515568
7152.75	1.25923490524
7153.0	1.25581276417
7153.25	1.25500023365
7153.5	1.25372123718
7153.75	1.25115895271
7154.0	1.25021862984
7154.25	1.24854767323
7154.5	1.24791038036
7154.75	1.24579524994
7155.0	1.24407184124
7155.25	1.24235534668
7155.5	1.24076640606
7155.75	1.24005043507
7156.0	1.23777043819
7156.25	1.23715996742
7156.5	1.23548209667
7156.75	1.23502635956
7157.0	1.23438584805
7157.25	1.23351502419
7157.5	1.23363780975
7157.75	1.23251581192
7158.0	1.23194468021
7158.25	1.23307621479
7158.5	1.23332715034
7158.75	1.23338198662
7159.0	1.23404407501
7159.25	1.2348344326
7159.5	1.23628592491
7159.75	1.23574197292
7160.0	1.23737668991
7161.09472656	1.24406802654
7162.20947266	1.25079846382
7163.34326172	1.25923681259
7164.49707031	1.26779520512
7165.67041016	1.2779968977
7166.86376953	1.28942632675
7168.07617188	1.30272328854
7169.30859375	1.31690812111
7170.56005859	1.3318246603
7171.83154297	1.34624814987
7173.12304688	1.36019814014
7174.43359375	1.37194490433
7175.76367188	1.38259899616
7177.11376953	1.39466655254
7178.48339844	1.40749752522
7179.87255859	1.41826367378
7181.28173828	1.42581617832
7182.70996094	1.42918491364
7184.15820313	1.43021178246
7185.62597656	1.42940592766
7187.11328125	1.42742478848
7188.62011719	1.42489182949
7190.14648438	1.42138719559
7191.69287109	1.41693985462
7193.25878906	1.41133487225
7194.84423828	1.40407562256
7196.44921875	1.39741969109
7198.07373047	1.38988757133
7199.71826172	1.38267850876
7201.38183594	1.3756660223
7203.06542969	1.36920404434
7204.76855469	1.36496138573
7206.49169922	1.36240649223
7208.23388672	1.3631926775
7209.99609375	1.36542701721
7211.77783203	1.37025117874
7213.57910156	1.37540781498
7215.39990234	1.38231432438
7217.24023438	1.39057397842
7219.10058594	1.39851129055
7220.98046875	1.40760338306
7222.87988281	1.41452777386
7224.79882813	1.42008078098
7226.73730469	1.42385840416
7228.69580078	1.42476272583
7230.67333984	1.42417788506
7232.67089844	1.42209517956
7234.68798828	1.4184088707
7236.72509766	1.41323530674
7238.78125	1.40600275993
7240.85742188	1.39880645275
7242.953125	1.39296293259
7245.06835938	1.39023923874
7247.203125	1.39127826691
7249.35742188	1.39716422558
7251.53173828	1.40569210052
7253.72558594	1.41631996632
7255.93896484	1.42714715004
7258.171875	1.4391720295
7260.42431641	1.449634552
7262.69677734	1.45959150791
7264.98828125	1.46750485897
7267.29980469	1.47289836407
7269.63085938	1.47631311417
7271.98193359	1.47874200344
7274.35205078	1.48022282124
7276.7421875	1.48146152496
7279.15185547	1.48117637634
7281.58105469	1.48105478287
7284.02978516	1.47798323631
7286.49804688	1.47394788265
7288.98632813	1.46830606461
7291.49414063	1.46471810341
7294.02148438	1.46219706535
7296.56835938	1.46126842499
7299.13476563	1.46116495132
7301.72119141	1.4610118866
7304.32666016	1.46057724953
7306.95214844	1.4605615139
7309.59716797	1.46236157417
7312.26220703	1.46721029282
7314.94628906	1.47392523289
7317.65039063	1.48144388199
7320.37353516	1.49024152756
7323.11669922	1.49890840054
7325.87988281	1.50516283512
7328.66210938	1.51061606407
7331.46435547	1.51381409168
7334.28564453	1.51496303082
7337.12695313	1.51432991028
7339.98828125	1.51367819309
7342.86865234	1.51295304298
7345.76855469	1.51210856438
7348.68847656	1.51042509079
7351.62792969	1.51182746887
7354.58691406	1.51364970207
7357.56542969	1.51586472988
7360.56396484	1.51885807514
7363.58154297	1.5226265192
7366.61914063	1.52769398689
7369.67626953	1.5325139761
7372.75292969	1.53644835949
7375.84960938	1.53990626335
7378.96533203	1.54215717316
7382.10107422	1.54387056828
7385.25634766	1.54676413536
7388.43115234	1.55066800117
7391.62597656	1.55538260937
7394.83984375	1.55848360062
7398.07373047	1.56287896633
7401.32714844	1.56467878819
7404.60009766	1.56569612026
7407.89257813	1.56778359413
7411.20458984	1.56953382492
7414.53662109	1.57051384449
7417.88818359	1.57275009155
7421.25927734	1.57492053509
7424.64990234	1.57681429386
7428.06005859	1.57959401608
7431.49023438	1.58161020279
7434.93994141	1.58449602127
7438.40917969	1.58792185783
7441.89794922	1.59212648869
7445.40625	1.5970505476
7448.93457031	1.60266959667
7452.48193359	1.60746836662
7456.04931641	1.6110779047
7459.63623047	1.61412382126
7463.24316406	1.61547839642
7466.86914063	1.61736834049
7470.51513672	1.61897480488
7474.18017578	1.62180697918
7477.86523438	1.6252553463
7481.5703125	1.62940859795
7485.29443359	1.63295316696
7489.03857422	1.6356805563
7492.80175781	1.63843953609
7496.58496094	1.64235329628
7500.38769531	1.64657318592
7504.21044922	1.65081822872
7508.05224609	1.65467917919
7511.9140625	1.65867400169
7515.79541016	1.66169285774
7519.69628906	1.66655266285
7523.61669922	1.67041647434
7527.55712891	1.6741656065
7531.51660156	1.67813849449
7535.49609375	1.68129467964
7539.49511719	1.6849501133
7543.51367188	1.6883764267
7547.55175781	1.69105064869
7551.60986328	1.69424879551
7555.6875	1.69732689857
7559.78466797	1.70114731789
7563.90136719	1.70545053482
7568.03759766	1.70925819874
7572.19384766	1.71419894695
7576.36914063	1.71819853783
7580.56445313	1.72233390808
7584.77929688	1.7266228199
7589.01367188	1.73166954517
7593.26806641	1.73633635044
7597.54199219	1.74173295498
7601.83496094	1.74669158459
7606.14794922	1.75110852718
7610.48046875	1.75552785397
7614.83300781	1.75939393044
7619.20458984	1.76380193233
7623.59619141	1.76746487617
7628.00732422	1.77003836632
7632.43798828	1.77425289154
7636.88818359	1.77788865566
7641.35839844	1.78300237656
7645.84814453	1.78673839569
7650.35742188	1.79133987427
7654.88623047	1.7960473299
7659.43457031	1.80047619343
7664.00244141	1.80511903763
7668.59033203	1.81015872955
7673.19775391	1.81534266472
7677.82470703	1.820327878
7682.47119141	1.82567489147
7687.13720703	1.83130955696
7691.82324219	1.83641195297
7696.52832031	1.8413901329
7701.25341797	1.84634411335
7705.99804688	1.85146760941
7710.76269531	1.85580229759
7715.54638672	1.86078059673
7720.35009766	1.86527645588
7725.17333984	1.8700555563
7730.01611328	1.87444376945
7734.87841797	1.87932348251
7739.76025391	1.8835310936
7744.66210938	1.88921201229
7749.58349609	1.89423835278
7754.52441406	1.90005016327
7759.48486328	1.9050809145
7764.46484375	1.91064119339
7769.46484375	1.91668915749
7774.484375	1.92242562771
7779.5234375	1.92739486694
7784.58203125	1.93288421631
7789.66015625	1.93809962273
7794.7578125	1.94400918484
7799.87548828	1.94948196411
7805.01269531	1.95466697216
7810.16943359	1.95972597599
7815.34570313	1.96545624733
7820.54199219	1.97025001049
7825.75732422	1.97580552101
7830.99267578	1.98111855984
7836.24755859	1.98662614822
7841.52197266	1.99213325977
7846.81591797	1.99819004536
7852.12988281	2.00371599197
7857.46337891	2.0091946125
7862.81640625	2.01534247398
7868.18896484	2.02190709114
7873.58105469	2.02969121933
7878.99267578	2.03588485718
7884.42431641	2.04244089127
7889.87548828	2.04905152321
7895.34619141	2.05500817299
7900.83642578	2.06010890007
7906.34667969	2.06546568871
7911.87597656	2.07164263725
7917.42529297	2.07782268524
7922.99414063	2.08372950554
7928.58251953	2.09021615982
7934.19042969	2.0953476429
7939.81835938	2.1019012928
7945.46582031	2.10893034935
7951.1328125	2.1148891449
7956.81933594	2.12149882317
7962.52539063	2.12811136246
7968.25097656	2.13545417786
7973.99658203	2.1424472332
7979.76171875	2.14874315262
7985.54638672	2.15552306175
7991.35058594	2.16115546227
7997.17480469	2.16797232628
8003.01806641	2.1744492054
8008.88134766	2.18083977699
8014.76416016	2.18704152107
8020.66650391	2.19377279282
8026.58837891	2.20036649704
8032.53027344	2.20632839203
8038.49169922	2.21379089355
8044.47216797	2.22071194649
8050.47314453	2.22752523422
8056.49316406	2.23448228836
8062.53271484	2.24143481255
8068.59228516	2.24855804443
8074.67138672	2.25539016724
8080.77001953	2.26233386993
8086.88818359	2.26940774918
8093.02587891	2.2768239975
8099.18359375	2.28403186798
8105.36083984	2.29114866257
