# Averaged Data //Vboxsvr/xafsdata/Standards/nontronit_001_fl.avg created by SamView
6880.0	0.0348271764815
6890.23828125	0.0350343957543
6900.47607422	0.0351355597377
6910.71435547	0.0353030860424
6920.95214844	0.0355040989816
6931.19042969	0.0358332134783
6941.42871094	0.0360387340188
6951.66650391	0.036304935813
6961.90478516	0.0363351330161
6972.14306641	0.0365475527942
6982.38085938	0.0371337942779
6992.61914063	0.0372664667666
7002.85693359	0.0378728732467
7013.09521484	0.0384469255805
7023.33349609	0.0389223322272
7033.57128906	0.0395689085126
7043.80957031	0.0407708100975
7054.04785156	0.0419927090406
7064.28564453	0.043586101383
7074.52392578	0.0462843067944
7084.76171875	0.0498604625463
7095.0	0.0564775168896
7095.25	0.0568440407515
7095.5	0.0570631250739
7095.75	0.0572141371667
7096.0	0.0574878379703
7096.25	0.0577483959496
7096.5	0.0580922141671
7096.75	0.0582514293492
7097.0	0.0585541650653
7097.25	0.0586934052408
7097.5	0.0591318868101
7097.75	0.0592781752348
7098.0	0.0596818216145
7098.25	0.0599207319319
7098.5	0.0601687431335
7098.75	0.0606855712831
7099.0	0.0608078241348
7099.25	0.0611293576658
7099.5	0.0613696351647
7099.75	0.0616813264787
7100.0	0.0620246827602
7100.25	0.0625892430544
7100.5	0.0627462491393
7100.75	0.0631265863776
7101.0	0.0635487511754
7101.25	0.0638753324747
7101.5	0.0644003152847
7101.75	0.0647746622562
7102.0	0.0653996244073
7102.25	0.0654769539833
7102.5	0.0663219690323
7102.75	0.0662500485778
7103.0	0.0669072642922
7103.25	0.0673082768917
7103.5	0.0678685829043
7103.75	0.0684081539512
7104.0	0.0689075440168
7104.25	0.069300673902
7104.5	0.0697298794985
7104.75	0.0704442039132
7105.0	0.070914439857
7105.25	0.0717859268188
7105.5	0.0723933205009
7105.75	0.0729683563113
7106.0	0.0737512782216
7106.25	0.0744007304311
7106.5	0.0751713514328
7106.75	0.0757879093289
7107.0	0.0766930878162
7107.25	0.0775097310543
7107.5	0.07820879668
7107.75	0.0791430175304
7108.0	0.0801079794765
7108.25	0.0814361423254
7108.5	0.0826401636004
7108.75	0.0837581306696
7109.0	0.0849647372961
7109.25	0.0866593644023
7109.5	0.0880362465978
7109.75	0.0897805243731
7110.0	0.0919476673007
7110.25	0.0940830484033
7110.5	0.097069658339
7110.75	0.100205272436
7111.0	0.104274488986
7111.25	0.10922318697
7111.5	0.115429103374
7111.75	0.123150169849
7112.0	0.132843643427
7112.25	0.142419427633
7112.5	0.154392659664
7112.75	0.165095508099
7113.0	0.175526157022
7113.25	0.183171495795
7113.5	0.190049439669
7113.75	0.195201933384
7114.0	0.198851928115
7114.25	0.200160339475
7114.5	0.199409738183
7114.75	0.197324022651
7115.0	0.192858427763
7115.25	0.188507467508
7115.5	0.183644384146
7115.75	0.180068403482
7116.0	0.177376762033
7116.25	0.176219642162
7116.5	0.176603868604
7116.75	0.178477585316
7117.0	0.181294798851
7117.25	0.184826508164
7117.5	0.190199404955
7117.75	0.196107655764
7118.0	0.2033842206
7118.25	0.210923686624
7118.5	0.220197036862
7118.75	0.229653581977
7119.0	0.241530567408
7119.25	0.253952920437
7119.5	0.270011663437
7119.75	0.287193387747
7120.0	0.308374077082
7120.25	0.331416428089
7120.5	0.359653651714
7120.75	0.391207635403
7121.0	0.42696082592
7121.25	0.46632412076
7121.5	0.512343883514
7121.75	0.562361240387
7122.0	0.613414764404
7122.25	0.671186566353
7122.5	0.733922302723
7122.75	0.80199944973
7123.0	0.867145121098
7123.25	0.938617408276
7123.5	1.00736773014
7123.75	1.07945656776
7124.0	1.14235544205
7124.25	1.21188509464
7124.5	1.27288591862
7124.75	1.33857059479
7125.0	1.39600217342
7125.25	1.46279227734
7125.5	1.52337217331
7125.75	1.59450781345
7126.0	1.65616214275
7126.25	1.73366630077
7126.5	1.80521845818
7126.75	1.88428366184
7127.0	1.95213496685
7127.25	2.03233337402
7127.5	2.10057425499
7127.75	2.17125749588
7128.0	2.22793221474
7128.25	2.28580260277
7128.5	2.33154892921
7128.75	2.37465763092
7129.0	2.40950942039
7129.25	2.44253897667
7129.5	2.47017025948
7129.75	2.49622154236
7130.0	2.51759266853
7130.25	2.53919553757
7130.5	2.56016683578
7130.75	2.58058691025
7131.0	2.5984146595
7131.25	2.61680340767
7131.5	2.63292908669
7131.75	2.64783573151
7132.0	2.65920948982
7132.25	2.67044854164
7132.5	2.67729043961
7132.75	2.68226408958
7133.0	2.68255639076
7133.25	2.67893147469
7133.5	2.67467403412
7133.75	2.66551876068
7134.0	2.65548968315
7134.25	2.64374661446
7134.5	2.62757754326
7134.75	2.613676548
7135.0	2.59609603882
7135.25	2.58047103882
7135.5	2.56184053421
7135.75	2.54599022865
7136.0	2.5292840004
7136.25	2.51422691345
7136.5	2.49995422363
7136.75	2.48799705505
7137.0	2.47586774826
7137.25	2.46508026123
7137.5	2.45519995689
7137.75	2.44608879089
7138.0	2.436450243
7138.25	2.42857503891
7138.5	2.41956019402
7138.75	2.41240406036
7139.0	2.40343236923
7139.25	2.39608740807
7139.5	2.38816571236
7139.75	2.38012719154
7140.0	2.37222385406
7140.25	2.36492800713
7140.5	2.35736632347
7140.75	2.34950733185
7141.0	2.34237647057
7141.25	2.33545398712
7141.5	2.32915306091
7141.75	2.32361149788
7142.0	2.31678390503
7142.25	2.31172466278
7142.5	2.30632328987
7142.75	2.30252170563
7143.0	2.2983148098
7143.25	2.29521560669
7143.5	2.29306840897
7143.75	2.29220509529
7144.0	2.29055356979
7144.25	2.29109144211
7144.5	2.29105496407
7144.75	2.29151558876
7145.0	2.29246735573
7145.25	2.2932677269
7145.5	2.29413223267
7145.75	2.29382514954
7146.0	2.2936975956
7146.25	2.29163622856
7146.5	2.29121398926
7146.75	2.28723502159
7147.0	2.28247284889
7147.25	2.27714538574
7147.5	2.27167391777
7147.75	2.26345276833
7148.0	2.25317406654
7148.25	2.24314618111
7148.5	2.2316672802
7148.75	2.21952962875
7149.0	2.20603990555
7149.25	2.19317793846
7149.5	2.17923164368
7149.75	2.16409015656
7150.0	2.14927172661
7150.25	2.13454127312
7150.5	2.12170886993
7150.75	2.10752034187
7151.0	2.0935959816
7151.25	2.08002686501
7151.5	2.06837081909
7151.75	2.05612826347
7152.0	2.04520964622
7152.25	2.03317785263
7152.5	2.02396321297
7152.75	2.01312017441
7153.0	2.00433301926
7153.25	1.99514591694
7153.5	1.9866746664
7153.75	1.97795343399
7154.0	1.97060871124
7154.25	1.96327602863
7154.5	1.95567429066
7154.75	1.94786465168
7155.0	1.94135558605
7155.25	1.93442332745
7155.5	1.92785930634
7155.75	1.92112421989
7156.0	1.91541945934
7156.25	1.90984642506
7156.5	1.90446388721
7156.75	1.89922118187
7157.0	1.89410674572
7157.25	1.88842105865
7157.5	1.88458538055
7157.75	1.87873494625
7158.0	1.87435805798
7158.25	1.87105512619
7158.5	1.86710596085
7158.75	1.86348247528
7159.0	1.8602039814
7159.25	1.85686910152
7159.5	1.85474979877
7159.75	1.8524119854
7160.0	1.85089027882
7161.09472656	1.84718418121
7162.20947266	1.85015285015
7163.34326172	1.86078941822
7164.49707031	1.87971484661
7165.67041016	1.90600776672
7166.86376953	1.93795251846
7168.07617188	1.97473466396
7169.30859375	2.01311588287
7170.56005859	2.05346107483
7171.83154297	2.09350538254
7173.12304688	2.13478517532
7174.43359375	2.17593359947
7175.76367188	2.21324157715
7177.11376953	2.24015688896
7178.48339844	2.2598657608
7179.87255859	2.27591586113
7181.28173828	2.28559374809
7182.70996094	2.28950953484
7184.15820313	2.28946781158
7185.62597656	2.28625106812
7187.11328125	2.28252911568
7188.62011719	2.27871274948
7190.14648438	2.27458333969
7191.69287109	2.2708106041
7193.25878906	2.26856660843
7194.84423828	2.26656293869
7196.44921875	2.26441955566
7198.07373047	2.25961899757
7199.71826172	2.25427365303
7201.38183594	2.24682784081
7203.06542969	2.23846197128
7204.76855469	2.22993516922
7206.49169922	2.22087335587
7208.23388672	2.21140623093
7209.99609375	2.20286369324
7211.77783203	2.19462871552
7213.57910156	2.18895173073
7215.39990234	2.18559193611
7217.24023438	2.18630480766
7219.10058594	2.19142580032
7220.98046875	2.19845557213
7222.87988281	2.20624136925
7224.79882813	2.21265482903
7226.73730469	2.21525359154
7228.69580078	2.21590447426
7230.67333984	2.2138633728
7232.67089844	2.21081089973
7234.68798828	2.20615148544
7236.72509766	2.2010512352
7238.78125	2.19815993309
7240.85742188	2.19762945175
7242.953125	2.19967770576
7245.06835938	2.20575404167
7247.203125	2.2138607502
7249.35742188	2.22633075714
7251.53173828	2.24057865143
7253.72558594	2.25662231445
7255.93896484	2.27238178253
7258.171875	2.28885912895
7260.42431641	2.30282664299
7262.69677734	2.31575298309
7264.98828125	2.32529306412
7267.29980469	2.33349370956
7269.63085938	2.33816480637
7271.98193359	2.34228134155
7274.35205078	2.3466796875
7276.7421875	2.34889173508
7279.15185547	2.35150027275
7281.58105469	2.35113763809
7284.02978516	2.34884810448
7286.49804688	2.3462331295
7288.98632813	2.34088468552
7291.49414063	2.33542609215
7294.02148438	2.32826733589
7296.56835938	2.32099676132
7299.13476563	2.3147456646
7301.72119141	2.30974984169
7304.32666016	2.30653452873
7306.95214844	2.30611109734
7309.59716797	2.30895256996
7312.26220703	2.31356358528
7314.94628906	2.32126808167
7317.65039063	2.32914352417
7320.37353516	2.33855223656
7323.11669922	2.34673428535
7325.87988281	2.35412168503
7328.66210938	2.3614192009
7331.46435547	2.36707448959
7334.28564453	2.37160491943
7337.12695313	2.37484025955
7339.98828125	2.37715935707
7342.86865234	2.37904667854
7345.76855469	2.38055419922
7348.68847656	2.38218903542
7351.62792969	2.38413524628
7354.58691406	2.38596868515
7357.56542969	2.38809680939
7360.56396484	2.39151239395
7363.58154297	2.39379405975
7366.61914063	2.39741325378
7369.67626953	2.40262460709
7372.75292969	2.40799713135
7375.84960938	2.41494417191
7378.96533203	2.4223587513
7382.10107422	2.43110156059
7385.25634766	2.4384162426
7388.43115234	2.44641923904
7391.62597656	2.45344352722
7394.83984375	2.45893979073
7398.07373047	2.46353149414
7401.32714844	2.46652007103
7404.60009766	2.46762728691
7407.89257813	2.46841192245
7411.20458984	2.46704792976
7414.53662109	2.46530461311
7417.88818359	2.4651966095
7421.25927734	2.46485996246
7424.64990234	2.46516704559
7428.06005859	2.46704530716
7431.49023438	2.46940946579
7434.93994141	2.47228193283
7438.40917969	2.4756155014
7441.89794922	2.4808382988
7445.40625	2.4858007431
7448.93457031	2.49187493324
7452.48193359	2.49651932716
7456.04931641	2.50329780579
7459.63623047	2.51014256477
7463.24316406	2.51778197289
7466.86914063	2.52539634705
7470.51513672	2.53303527832
7474.18017578	2.54091787338
7477.86523438	2.54768300056
7481.5703125	2.55349111557
7485.29443359	2.55870771408
7489.03857422	2.56343245506
7492.80175781	2.56679368019
7496.58496094	2.57064819336
7500.38769531	2.57329368591
7504.21044922	2.5763399601
7508.05224609	2.57926774025
7511.9140625	2.58220553398
7515.79541016	2.58715438843
7519.69628906	2.59136605263
7523.61669922	2.59588861465
7527.55712891	2.60176157951
7531.51660156	2.60802578926
7535.49609375	2.61397433281
7539.49511719	2.62010121346
7543.51367188	2.62579298019
7547.55175781	2.6315073967
7551.60986328	2.63745498657
7555.6875	2.6431953907
7559.78466797	2.6481654644
7563.90136719	2.65333366394
7568.03759766	2.65841722488
7572.19384766	2.66342401505
7576.36914063	2.66805744171
7580.56445313	2.67336058617
7584.77929688	2.67799425125
7589.01367188	2.68365597725
7593.26806641	2.68808722496
7597.54199219	2.69315361977
7601.83496094	2.69797992706
7606.14794922	2.70343518257
7610.48046875	2.7093732357
7614.83300781	2.71582269669
7619.20458984	2.72225165367
7623.59619141	2.72885251045
7628.00732422	2.73564338684
7632.43798828	2.74330830574
7636.88818359	2.75076937675
7641.35839844	2.75881242752
7645.84814453	2.76554059982
7650.35742188	2.77243113518
7654.88623047	2.77903819084
7659.43457031	2.78570175171
7664.00244141	2.79230737686
7668.59033203	2.7972881794
7673.19775391	2.80335736275
7677.82470703	2.80813312531
7682.47119141	2.81625699997
7687.13720703	2.82063150406
7691.82324219	2.82658290863
7696.52832031	2.83250808716
7701.25341797	2.83874130249
7705.99804688	2.84482550621
7710.76269531	2.85152769089
7715.54638672	2.86174988747
7720.35009766	2.86224579811
7725.17333984	2.87024092674
7730.01611328	2.87748742104
7734.87841797	2.88366508484
7739.76025391	2.89093732834
7744.66210938	2.89809823036
7749.58349609	2.90549063683
7754.52441406	2.91258573532
7759.48486328	2.91967701912
7764.46484375	2.92650771141
7769.46484375	2.93399357796
7774.484375	2.94150590897
7779.5234375	2.94874477386
7784.58203125	2.9562997818
7789.66015625	2.9633603096
7794.7578125	2.97030472755
7799.87548828	2.97770285606
7805.01269531	2.98509073257
7810.16943359	2.99255347252
7815.34570313	2.99976348877
7820.54199219	3.00650215149
7825.75732422	3.01416969299
7830.99267578	3.02189302444
7836.24755859	3.02930760384
7841.52197266	3.03694200516
7846.81591797	3.04452228546
7852.12988281	3.05221128464
7857.46337891	3.06008577347
7862.81640625	3.06811261177
7868.18896484	3.07594776154
7873.58105469	3.08384943008
7878.99267578	3.09184551239
7884.42431641	3.09969258308
7889.87548828	3.1075565815
7895.34619141	3.11516475677
7900.83642578	3.12329554558
7906.34667969	3.13087511063
7911.87597656	3.13878083229
7917.42529297	3.14684963226
7922.99414063	3.15533351898
7928.58251953	3.16327476501
7934.19042969	3.17146635056
7939.81835938	3.17989683151
7945.46582031	3.18894410133
7951.1328125	3.19692993164
7956.81933594	3.205960989
7962.52539063	3.21488237381
7968.25097656	3.22394800186
7973.99658203	3.23258662224
7979.76171875	3.24175405502
7985.54638672	3.25062465668
7991.35058594	3.25972676277
7997.17480469	3.26842570305
8003.01806641	3.27783131599
8008.88134766	3.28694009781
8014.76416016	3.2961742878
8020.66650391	3.30533719063
8026.58837891	3.31412529945
8032.53027344	3.32264351845
8038.49169922	3.33160614967
8044.47216797	3.34066414833
8050.47314453	3.3495182991
8056.49316406	3.35880899429
8062.53271484	3.3675506115
8068.59228516	3.37633800507
8074.67138672	3.38484549522
8080.77001953	3.39376378059
8086.88818359	3.40225863457
8093.02587891	3.41158390045
8099.18359375	3.42103695869
8105.36083984	3.43042349815
