# Averaged Data //Vboxsvr/xafsdata/Standards/pyrite_001_fl.avg created by SamView
6880.0	0.0334579572082
6890.23828125	0.0335315130651
6900.47607422	0.0340065062046
6910.71435547	0.034489326179
6920.95214844	0.0351319871843
6931.19042969	0.0357006788254
6941.42871094	0.0361058451235
6951.66650391	0.0361646227539
6961.90478516	0.0367743633687
6972.14306641	0.0370298847556
6982.38085938	0.0376971550286
6992.61914063	0.0382191501558
7002.85693359	0.0387716777623
7013.09521484	0.0393344275653
7023.33349609	0.0401095934212
7033.57128906	0.0408970154822
7043.80957031	0.0413935557008
7054.04785156	0.0422270223498
7064.28564453	0.0436158552766
7074.52392578	0.044661398977
7084.76171875	0.0465678647161
7095.0	0.049793574959
7095.14990234	0.0497758500278
7095.30029297	0.0499444678426
7095.45019531	0.0499610193074
7095.60058594	0.0499982312322
7095.75048828	0.0499436743557
7095.90087891	0.050061032176
7096.05078125	0.0499660074711
7096.20068359	0.0502540171146
7096.35107422	0.0502667687833
7096.50097656	0.0504984073341
7096.65136719	0.0505179688334
7096.80126953	0.0504802241921
7096.95166016	0.0505490079522
7097.1015625	0.0506753772497
7097.25195313	0.0507472231984
7097.40185547	0.0509246736765
7097.55175781	0.0510935224593
7097.70214844	0.0511588528752
7097.85205078	0.0510051436722
7098.00244141	0.0511624030769
7098.15234375	0.0511000901461
7098.30273438	0.0515508800745
7098.45263672	0.0515287742019
7098.60253906	0.0515801422298
7098.75292969	0.0516203530133
7098.90283203	0.0516602359712
7099.05322266	0.0517835393548
7099.203125	0.0519956387579
7099.35351563	0.0520510077477
7099.50341797	0.0519480705261
7099.65380859	0.0523248016834
7099.80371094	0.0523130148649
7099.95361328	0.0523371249437
7100.10400391	0.0525687076151
7100.25390625	0.0527949258685
7100.40429688	0.0527308695018
7100.55419922	0.0525222979486
7100.70458984	0.0529272072017
7100.85449219	0.0531842038035
7101.00439453	0.0533188469708
7101.15478516	0.0533216148615
7101.3046875	0.0534159876406
7101.45507813	0.0536084808409
7101.60498047	0.0538634173572
7101.75537109	0.0539334714413
7101.90527344	0.0539746657014
7102.05566406	0.0542840734124
7102.20556641	0.0543051734567
7102.35546875	0.0543833523989
7102.50585938	0.0545768365264
7102.65576172	0.0548445060849
7102.80615234	0.0548812896013
7102.95605469	0.0552517212927
7103.10644531	0.0552756711841
7103.25634766	0.0554328076541
7103.40625	0.0557089559734
7103.55664063	0.0556806884706
7103.70654297	0.0560307614505
7103.85693359	0.0561133772135
7104.00683594	0.0564807392657
7104.15722656	0.0564570315182
7104.30712891	0.0567104667425
7104.45703125	0.0568861141801
7104.60742188	0.0573445409536
7104.75732422	0.0574377886951
7104.90771484	0.0575569681823
7105.05761719	0.0578185170889
7105.20800781	0.0579080618918
7105.35791016	0.0581790059805
7105.50830078	0.058501906693
7105.65820313	0.0588288977742
7105.80810547	0.0591920241714
7105.95849609	0.0594716891646
7106.10839844	0.059670586139
7106.25878906	0.0600100420415
7106.40869141	0.0605456121266
7106.55908203	0.0607609860599
7106.70898438	0.0610856637359
7106.85888672	0.0615273676813
7107.00927734	0.061936262995
7107.15917969	0.0622928701341
7107.30957031	0.0627509877086
7107.45947266	0.0632647275925
7107.60986328	0.0638386458158
7107.75976563	0.0642842724919
7107.91015625	0.0648761168122
7108.06005859	0.0655165016651
7108.20996094	0.0661616772413
7108.36035156	0.0669854059815
7108.51025391	0.0676916018128
7108.66064453	0.0686343088746
7108.81054688	0.0696265399456
7108.9609375	0.0709064230323
7109.11083984	0.0723673179746
7109.26074219	0.0738314688206
7109.41113281	0.0752550512552
7109.56103516	0.0775599852204
7109.71142578	0.080373339355
7109.86132813	0.0831188634038
7110.01171875	0.0874114483595
7110.16162109	0.0920795798302
7110.31201172	0.0964547693729
7110.46191406	0.101758353412
7110.61181641	0.10836315155
7110.76220703	0.114510878921
7110.91210938	0.120212517679
7111.0625	0.126062393188
7111.21240234	0.130806028843
7111.36279297	0.134226575494
7111.51269531	0.137898281217
7111.66259766	0.140280634165
7111.81298828	0.14148645103
7111.96289063	0.142409265041
7112.11328125	0.142849549651
7112.26318359	0.143500268459
7112.41357422	0.143945410848
7112.56347656	0.144455984235
7112.71386719	0.144512325525
7112.86376953	0.144730389118
7113.01367188	0.144178643823
7113.1640625	0.143804579973
7113.31396484	0.143255576491
7113.46435547	0.14275175333
7113.61425781	0.142149999738
7113.76464844	0.142333373427
7113.91455078	0.14262200892
7114.06445313	0.143760606647
7114.21484375	0.145496636629
7114.36474609	0.148330718279
7114.51513672	0.152277618647
7114.66503906	0.157132074237
7114.81542969	0.163175225258
7114.96533203	0.171708330512
7115.11523438	0.180856481194
7115.265625	0.190565526485
7115.41552734	0.204446166754
7115.56591797	0.221391886473
7115.71582031	0.238837778568
7115.86621094	0.260811388493
7116.01611328	0.286104142666
7116.16650391	0.307440012693
7116.31640625	0.33216625452
7116.46630859	0.35910743475
7116.61669922	0.382232248783
7116.76660156	0.401015847921
7116.91699219	0.419259130955
7117.06689453	0.434189677238
7117.21728516	0.446451246738
7117.3671875	0.460853487253
7117.51708984	0.475942820311
7117.66748047	0.487804442644
7117.81738281	0.501394629478
7117.96777344	0.515580236912
7118.11767578	0.526557445526
7118.26806641	0.539189577103
7118.41796875	0.55029207468
7118.56835938	0.560022234917
7118.71826172	0.568580985069
7118.86816406	0.575201869011
7119.01855469	0.580157697201
7119.16845703	0.582816064358
7119.31884766	0.586368203163
7119.46875	0.588063538074
7119.61914063	0.588002681732
7119.76904297	0.587767422199
7119.91894531	0.587472617626
7120.06933594	0.587293088436
7120.21923828	0.586151480675
7120.36962891	0.586006700993
7120.51953125	0.585959494114
7120.66992188	0.587457537651
7120.81982422	0.588397920132
7120.97021484	0.589866399765
7121.12011719	0.592951118946
7121.27001953	0.595953166485
7121.42041016	0.597853839397
7121.5703125	0.600938796997
7121.72070313	0.604667365551
7121.87060547	0.607611835003
7122.02099609	0.609683811665
7122.17089844	0.612625300884
7122.32080078	0.61678057909
7122.47119141	0.619014441967
7122.62109375	0.622653663158
7122.77148438	0.625856399536
7122.92138672	0.628785431385
7123.07177734	0.631423711777
7123.22167969	0.63437640667
7123.37158203	0.637408673763
7123.52197266	0.639914274216
7123.671875	0.642158865929
7123.82226563	0.644228935242
7123.97216797	0.64546841383
7124.12255859	0.647741615772
7124.27246094	0.648636221886
7124.42285156	0.649863302708
7124.57275391	0.650922894478
7124.72265625	0.653803050518
7124.87304688	0.654739499092
7125.02294922	0.656134128571
7125.17333984	0.659736275673
7125.32324219	0.661233901978
7125.47363281	0.66278475523
7125.62353516	0.665582120419
7125.7734375	0.667717695236
7125.92382813	0.670568227768
7126.07373047	0.672974467278
7126.22412109	0.675178825855
7126.37402344	0.677930772305
7126.52441406	0.680447816849
7126.67431641	0.68310636282
7126.82470703	0.685409069061
7126.97460938	0.687603235245
7127.12451172	0.690858244896
7127.27490234	0.692997515202
7127.42480469	0.696170210838
7127.57519531	0.699429988861
7127.72509766	0.703416705132
7127.87548828	0.705813586712
7128.02539063	0.709077119827
7128.17529297	0.712293207645
7128.32568359	0.715570867062
7128.47558594	0.717720508575
7128.62597656	0.721852421761
7128.77587891	0.725769877434
7128.92626953	0.727860033512
7129.07617188	0.731700003147
7129.2265625	0.735130608082
7129.37646484	0.737712085247
7129.52636719	0.740722596645
7129.67675781	0.743521153927
7129.82666016	0.746166944504
7129.97705078	0.749708592892
7130.12695313	0.752546906471
7130.27734375	0.754006505013
7130.42724609	0.757024168968
7130.57714844	0.759058654308
7130.72753906	0.76162481308
7130.87744141	0.763768076897
7131.02783203	0.766315639019
7131.17773438	0.768076658249
7131.328125	0.769661605358
7131.47802734	0.77113366127
7131.62841797	0.773546218872
7131.77832031	0.77605009079
7131.92822266	0.777100324631
7132.07861328	0.77922976017
7132.22851563	0.781374335289
7132.37890625	0.781962096691
7132.52880859	0.784768879414
7132.67919922	0.785686314106
7132.82910156	0.787732601166
7132.97900391	0.790857076645
7133.12939453	0.790923714638
7133.27929688	0.792414307594
7133.4296875	0.793623685837
7133.57958984	0.795283198357
7133.72998047	0.794995844364
7133.87988281	0.796594202518
7134.02978516	0.79744464159
7134.18017578	0.79844212532
7134.33007813	0.799158513546
7134.48046875	0.800511956215
7134.63037109	0.800801098347
7134.78076172	0.802118122578
7134.93066406	0.802561163902
7135.08105469	0.80327051878
7135.23095703	0.803674638271
7135.38085938	0.804798424244
7135.53125	0.804240703583
7135.68115234	0.803944766521
7135.83154297	0.804804325104
7135.98144531	0.805859208107
7136.13183594	0.805868327618
7136.28173828	0.805944263935
7136.43164063	0.806649029255
7136.58203125	0.806163012981
7136.73193359	0.80598115921
7136.88232422	0.805038928986
7137.03222656	0.805525839329
7137.18261719	0.806492507458
7137.33251953	0.804288029671
7137.48291016	0.805142343044
7137.6328125	0.805423676968
7137.78271484	0.805053472519
7137.93310547	0.804330706596
7138.08300781	0.803673684597
7138.23339844	0.804326176643
7138.38330078	0.803533732891
7138.53369141	0.802193820477
7138.68359375	0.803090333939
7138.83349609	0.802335500717
7138.98388672	0.801638424397
7139.13378906	0.801140844822
7139.28417969	0.800569176674
7139.43408203	0.800207257271
7139.58447266	0.799691855907
7139.734375	0.798784852028
7139.88476563	0.798863887787
7140.03466797	0.798546791077
7140.18457031	0.79704195261
7140.33496094	0.797458767891
7140.48486328	0.796695947647
7140.63525391	0.796397149563
7140.78515625	0.794950187206
7140.93554688	0.795128941536
7141.08544922	0.793224155903
7141.23535156	0.793353497982
7141.38574219	0.791981577873
7141.53564453	0.790919721127
7141.68603516	0.790380299091
7141.8359375	0.789471626282
7141.98632813	0.788331151009
7142.13623047	0.786646902561
7142.28613281	0.785532593727
7142.43652344	0.783838033676
7142.58642578	0.781789183617
7142.73681641	0.781618237495
7142.88671875	0.780271828175
7143.03710938	0.777732610703
7143.18701172	0.776651620865
7143.33740234	0.774703979492
7143.48730469	0.773054540157
7143.63720703	0.771866977215
7143.78759766	0.771069526672
7143.9375	0.76959580183
7144.08789063	0.767737388611
7144.23779297	0.766519963741
7144.38818359	0.764237463474
7144.53808594	0.762975215912
7144.68798828	0.761526584625
7144.83837891	0.76082611084
7144.98828125	0.758900105953
7145.13867188	0.758225142956
7145.28857422	0.757459044456
7145.43896484	0.755660772324
7145.58886719	0.754294157028
7145.73925781	0.753958582878
7145.88916016	0.752500593662
7146.0390625	0.752668976784
7146.18945313	0.749811530113
7146.33935547	0.750299036503
7146.48974609	0.749532103539
7146.63964844	0.747585535049
7146.79003906	0.747377812862
7146.93994141	0.746135532856
7147.08984375	0.745491266251
7147.24023438	0.744306981564
7147.39013672	0.743317008018
7147.54052734	0.741998255253
7147.69042969	0.742853939533
7147.84082031	0.741488516331
7147.99072266	0.739471554756
7148.14111328	0.739316880703
7148.29101563	0.739346206188
7148.44091797	0.738116204739
7148.59130859	0.737162590027
7148.74121094	0.736948132515
7148.89160156	0.736210942268
7149.04150391	0.734181344509
7149.19189453	0.733278810978
7149.34179688	0.733269751072
7149.49169922	0.733500540257
7149.64208984	0.731748104095
7149.79199219	0.730251431465
7149.94238281	0.730153083801
7150.09228516	0.728932201862
7150.24267578	0.727556228638
7150.39257813	0.728047132492
7150.54296875	0.727296888828
7150.69287109	0.726462543011
7150.84277344	0.725337088108
7150.99316406	0.724417746067
7151.14306641	0.724244356155
7151.29345703	0.724020123482
7151.44335938	0.722207069397
7151.59375	0.722069323063
7151.74365234	0.72160410881
7151.89355469	0.721565425396
7152.04394531	0.720255374908
7152.19384766	0.720514118671
7152.34423828	0.719896376133
7152.49414063	0.718617320061
7152.64453125	0.718572974205
7152.79443359	0.717929899693
7152.94433594	0.71821308136
7153.09472656	0.71702426672
7153.24462891	0.717312216759
7153.39501953	0.717840611935
7153.54492188	0.716803431511
7153.6953125	0.716173827648
7153.84521484	0.715929865837
7153.99560547	0.716032087803
7154.14550781	0.715650320053
7154.29541016	0.716158390045
7154.44580078	0.715211451054
7154.59570313	0.715487837791
7154.74609375	0.714877307415
7154.89599609	0.714527010918
7155.04638672	0.71462225914
7155.19628906	0.714852869511
7155.34619141	0.713617384434
7155.49658203	0.713465809822
7155.64648438	0.713064610958
7155.796875	0.713189661503
7155.94677734	0.712495625019
7156.09716797	0.711153388023
7156.24707031	0.711069405079
7156.39746094	0.71086370945
7156.54736328	0.710571229458
7156.69726563	0.710137724876
7156.84765625	0.709748506546
7156.99755859	0.7095952034
7157.14794922	0.708837270737
7157.29785156	0.707830369473
7157.44824219	0.707107245922
7157.59814453	0.706998884678
7157.74804688	0.705486476421
7157.8984375	0.705079197884
7158.04833984	0.703902840614
7158.19873047	0.703399121761
7158.34863281	0.702725172043
7158.49902344	0.701914072037
7158.64892578	0.701941132545
7158.79931641	0.700102210045
7158.94921875	0.698708534241
7159.09912109	0.698242843151
7159.24951172	0.697460412979
7159.39941406	0.69718170166
7159.54980469	0.696255207062
7159.69970703	0.695829749107
7159.85009766	0.695993840694
7160.0	0.694442033768
7161.09082031	0.691353619099
7162.20068359	0.691828846931
7163.33056641	0.69552230835
7164.47949219	0.702648043633
7165.64794922	0.709357023239
7166.8359375	0.717025876045
7168.04345703	0.721954882145
7169.27050781	0.726403236389
7170.51660156	0.730596363544
7171.78271484	0.734110355377
7173.06787109	0.739007651806
7174.37304688	0.744574725628
7175.69726563	0.751149594784
7177.04101563	0.757420003414
7178.40429688	0.764219939709
7179.78710938	0.769253194332
7181.18896484	0.773531854153
7182.61083984	0.776147484779
7184.05175781	0.780349731445
7185.51269531	0.784225225449
7186.99267578	0.788844347
7188.4921875	0.792024075985
7190.01123047	0.798011302948
7191.54980469	0.787824809551
7193.10791016	0.814292609692
7194.68505859	0.821545600891
7196.28222656	0.817255318165
7197.8984375	0.824036896229
7199.53417969	0.825336098671
7201.18994141	0.823858320713
7202.86474609	0.816278338432
7204.55908203	0.803482413292
7206.27246094	0.793437063694
7208.00585938	0.785054802895
7209.75878906	0.77562135458
7211.53076172	0.767714977264
7213.32226563	0.759276509285
7215.13330078	0.751203358173
7216.96435547	0.745568871498
7218.81396484	0.740011751652
7220.68359375	0.737953662872
7222.57275391	0.739325165749
7224.48144531	0.742056429386
7226.40917969	0.74887752533
7228.35644531	0.757318556309
7230.32373047	0.76430273056
7232.31005859	0.76894980669
7234.31591797	0.775520443916
7236.34130859	0.780683398247
7238.38574219	0.786406815052
7240.45019531	0.793648421764
7242.53369141	0.799192965031
7244.63720703	0.805909097195
7246.75976563	0.812943279743
7248.90185547	0.818963050842
7251.06347656	0.820398807526
7253.24462891	0.817592799664
7255.4453125	0.812642157078
7257.66552734	0.808569848537
7259.90478516	0.807021260262
7262.16357422	0.809913814068
7264.44238281	0.813988506794
7266.74023438	0.819471716881
7269.05761719	0.826389431953
7271.39453125	0.830825269222
7273.75097656	0.834049940109
7276.12646484	0.833458840847
7278.52197266	0.832699596882
7280.93701172	0.830371022224
7283.37109375	0.827941536903
7285.82470703	0.827027857304
7288.29785156	0.826489567757
7290.79052734	0.826035618782
7293.30273438	0.824962675571
7295.83447266	0.822190463543
7298.38525391	0.816524207592
7300.95605469	0.810918629169
7303.54589844	0.807374060154
7306.15527344	0.807080626488
7308.78466797	0.809021830559
7311.43310547	0.81096047163
7314.10058594	0.812090098858
7316.78808594	0.812829256058
7319.49511719	0.814857006073
7322.22119141	0.81928730011
7324.96728516	0.826518237591
7327.73242188	0.834250569344
7330.51708984	0.842028141022
7333.32128906	0.848846137524
7336.14501953	0.854177415371
7338.98828125	0.856674551964
7341.85107422	0.857533812523
7344.73291016	0.856343686581
7347.63476563	0.855227470398
7350.55566406	0.854753732681
7353.49609375	0.854550302029
7356.45605469	0.856314659119
7359.43554688	0.859064757824
7362.43457031	0.863437771797
7365.453125	0.864412426949
7368.49121094	0.867426395416
7371.54833984	0.866913676262
7374.625	0.864379584789
7377.72167969	0.863623082638
7380.83740234	0.864495635033
7383.97265625	0.866067051888
7387.12744141	0.86664134264
7390.30175781	0.869483590126
7393.49511719	0.871338963509
7396.70849609	0.871190905571
7399.94091797	0.869892477989
7403.19287109	0.86689800024
7406.46484375	0.865256488323
7409.75585938	0.867187142372
7413.06640625	0.870723664761
7416.39599609	0.873799264431
7419.74560547	0.877460062504
7423.11474609	0.879433810711
7426.50292969	0.881155848503
7429.91064453	0.882372617722
7433.33837891	0.884406507015
7436.78515625	0.887870371342
7440.25146484	0.891809880733
7443.73681641	0.896872580051
7447.2421875	0.902078270912
7450.76708984	0.906798541546
7454.31103516	0.911029756069
7457.875	0.912649154663
7461.45800781	0.91356742382
7465.06054688	0.914478003979
7468.68261719	0.915486335754
7472.32421875	0.916133582592
7475.98535156	0.915894091129
7479.66552734	0.915689527988
7483.36572266	0.91656011343
7487.08496094	0.918376207352
7490.82421875	0.919734597206
7494.58251953	0.921596288681
7498.36035156	0.924777150154
7502.15771484	0.928431987762
7505.97412109	0.929984867573
7509.81054688	0.93164396286
7513.66650391	0.933512449265
7517.54150391	0.936590075493
7521.43603516	0.937255084515
7525.35058594	0.937476456165
7529.28417969	0.936643958092
7533.23730469	0.937939941883
7537.20996094	0.94128549099
7541.20166016	0.94407337904
7545.21337891	0.947940587997
7549.24414063	0.950177252293
7553.29492188	0.952054262161
7557.36474609	0.952706336975
7561.45410156	0.955267488956
7565.56298828	0.958780884743
7569.69140625	0.962569415569
7573.83935547	0.966474115849
7578.00634766	0.970525443554
7582.19335938	0.974727094173
7586.39941406	0.979445159435
7590.625	0.983435034752
7594.87060547	0.98518037796
7599.13525391	0.98569971323
7603.41943359	0.986472547054
7607.72265625	0.987613141537
7612.04589844	0.988331854343
7616.38867188	0.989549458027
7620.75048828	0.990962862968
7625.13183594	0.992706298828
7629.53320313	0.994536101818
7633.95361328	0.99540412426
7638.39355469	0.998429477215
7642.85253906	1.00076925755
7647.33154297	1.00472986698
7651.83007813	1.00791466236
7656.34765625	1.01154601574
7660.88525391	1.01550579071
7665.44189453	1.01816177368
7670.01806641	1.01998603344
7674.61376953	1.02182996273
7679.22900391	1.02341783047
7683.86328125	1.01283586025
7688.51757813	1.038164258
7693.19140625	1.02319359779
7697.88427734	1.03398013115
7702.59667969	1.0347315073
7707.32861328	1.04553556442
7712.08007813	1.02586007118
7716.85107422	1.04667806625
7721.64160156	1.04849672318
7726.45166016	1.05226039886
7731.28076172	1.05491411686
7736.12988281	1.05842602253
7740.99804688	1.06203961372
7745.88574219	1.06637859344
7750.79296875	1.06959474087
7755.71972656	1.07180058956
7760.66601563	1.07432746887
7765.63183594	1.0772652626
7770.61669922	1.07840645313
7775.62158203	1.08090174198
7780.64550781	1.08237159252
7785.68945313	1.08398330212
7790.75244141	1.08683371544
7795.83496094	1.08986723423
7800.93652344	1.09269082546
7806.05810547	1.09594011307
7811.19921875	1.09899067879
7816.359375	1.10260248184
7821.53955078	1.10624504089
7826.73876953	1.10928380489
7831.95751953	1.11357545853
7837.19580078	1.11662721634
7842.45361328	1.11957275867
7847.73095703	1.12304496765
7853.02783203	1.12555849552
7858.34375	1.12864530087
7863.67919922	1.13111972809
7869.03466797	1.13461434841
7874.40917969	1.13841664791
7879.80322266	1.14097881317
7885.21679688	1.14311540127
7890.64990234	1.14777886868
7896.10253906	1.1503289938
7901.57421875	1.15267598629
7907.06591797	1.15740060806
7912.57666016	1.16060602665
7918.10693359	1.16446268559
7923.65673828	1.16790127754
7929.22607422	1.17041170597
7934.81494141	1.17388319969
7940.42333984	1.17768251896
7946.05078125	1.18050646782
7951.69824219	1.18410098553
7957.36474609	1.18834996223
7963.05126953	1.19195699692
7968.75683594	1.19609558582
7974.48193359	1.19882631302
7980.2265625	1.20233261585
7985.99023438	1.20592057705
7991.77392578	1.20943248272
7997.57714844	1.21312785149
8003.39941406	1.21693825722
8009.24121094	1.22073721886
8015.10253906	1.2247262001
8020.98388672	1.22911000252
8026.88378906	1.23299121857
8032.80371094	1.23695683479
8038.74316406	1.24021375179
8044.70214844	1.24453055859
8050.68017578	1.24849927425
8056.67773438	1.25215101242
8062.6953125	1.25597012043
8068.73193359	1.25926566124
8074.78808594	1.26271140575
8080.86376953	1.26714539528
8086.95849609	1.27048504353
8093.07324219	1.27471017838
8099.20703125	1.27792155743
8105.36083984	1.28216731548
