# Averaged Data //Vboxsvr/xafsdata/Standards/pyrrhotite_001_fl.avg created by SamView
6880.0	0.0694258660078
6890.23828125	0.0693015307188
6900.47607422	0.0691491812468
6910.71435547	0.0689844861627
6920.95214844	0.0678006708622
6931.19042969	0.069066695869
6941.42871094	0.0688043832779
6951.66650391	0.0685593187809
6961.90478516	0.0684470161796
6972.14306641	0.068505205214
6982.38085938	0.0684184506536
6992.61914063	0.0683929920197
7002.85693359	0.0688700601459
7013.09521484	0.0691586211324
7023.33349609	0.0697476789355
7033.57128906	0.0704909339547
7043.80957031	0.0712140798569
7054.04785156	0.0729925408959
7064.28564453	0.0743424445391
7074.52392578	0.0773511379957
7084.76171875	0.0828850269318
7095.0	0.0934114903212
7095.25	0.0937940627337
7095.5	0.0942143946886
7095.75	0.0949503108859
7096.0	0.095273040235
7096.25	0.0956410691142
7096.5	0.0962370932102
7096.75	0.0966916382313
7097.0	0.0969986319542
7097.25	0.0978150740266
7097.5	0.0981623157859
7097.75	0.0987869650126
7098.0	0.0991958081722
7098.25	0.0998937487602
7098.5	0.100504972041
7098.75	0.101033180952
7099.0	0.101788640022
7099.25	0.102298654616
7099.5	0.102776221931
7099.75	0.103621341288
7100.0	0.104301169515
7100.25	0.105071753263
7100.5	0.105719611049
7100.75	0.106496468186
7101.0	0.107299879193
7101.25	0.108276635408
7101.5	0.108796305954
7101.75	0.109662629664
7102.0	0.110583156347
7102.25	0.111630819738
7102.5	0.112249717116
7102.75	0.113444678485
7103.0	0.114447824657
7103.25	0.115605585277
7103.5	0.116844981909
7103.75	0.118180304766
7104.0	0.119290031493
7104.25	0.120871938765
7104.5	0.122166261077
7104.75	0.123383954167
7105.0	0.125034868717
7105.25	0.126526683569
7105.5	0.128134578466
7105.75	0.130165547132
7106.0	0.13196529448
7106.25	0.134320542216
7106.5	0.136343240738
7106.75	0.139075934887
7107.0	0.141646966338
7107.25	0.144333064556
7107.5	0.147334516048
7107.75	0.151155665517
7108.0	0.154527842999
7108.25	0.159354865551
7108.5	0.164079785347
7108.75	0.170341268182
7109.0	0.176820024848
7109.25	0.185068175197
7109.5	0.194739088416
7109.75	0.207369148731
7110.0	0.221276193857
7110.25	0.238410443068
7110.5	0.25724697113
7110.75	0.278906345367
7111.0	0.301464080811
7111.25	0.324894368649
7111.5	0.346897721291
7111.75	0.368351697922
7112.0	0.387694984674
7112.25	0.403507918119
7112.5	0.418274492025
7112.75	0.432093977928
7113.0	0.446373403072
7113.25	0.459592431784
7113.5	0.476358622313
7113.75	0.495045274496
7114.0	0.519120454788
7114.25	0.545585274696
7114.5	0.580856919289
7114.75	0.619260966778
7115.0	0.67029863596
7115.25	0.720722079277
7115.5	0.78714632988
7115.75	0.852830469608
7116.0	0.933946430683
7116.25	1.00777602196
7116.5	1.10098648071
7116.75	1.1843470335
7117.0	1.27792775631
7117.25	1.35846781731
7117.5	1.45397555828
7117.75	1.53935837746
7118.0	1.62733697891
7118.25	1.70251369476
7118.5	1.78281545639
7118.75	1.84925365448
7119.0	1.91773414612
7119.25	1.97236359119
7119.5	2.02754282951
7119.75	2.06941580772
7120.0	2.10768294334
7120.25	2.13897681236
7120.5	2.16420412064
7120.75	2.18501758575
7121.0	2.20095896721
7121.25	2.21269130707
7121.5	2.22275447845
7121.75	2.23144102097
7122.0	2.23868584633
7122.25	2.24636292458
7122.5	2.25576806068
7122.75	2.26590895653
7123.0	2.27694177628
7123.25	2.28963732719
7123.5	2.30384588242
7123.75	2.31789445877
7124.0	2.33179998398
7124.25	2.34744000435
7124.5	2.36061120033
7124.75	2.37440133095
7125.0	2.38528347015
7125.25	2.39650201797
7125.5	2.40479302406
7125.75	2.41305422783
7126.0	2.42107796669
7126.25	2.42842292786
7126.5	2.43287014961
7126.75	2.43860602379
7127.0	2.44422411919
7127.25	2.45104384422
7127.5	2.45692253113
7127.75	2.46176338196
7128.0	2.46816110611
7128.25	2.47583675385
7128.5	2.48003530502
7128.75	2.48755788803
7129.0	2.4904396534
7129.25	2.4949092865
7129.5	2.4975039959
7129.75	2.49962925911
7130.0	2.49991083145
7130.25	2.49935531616
7130.5	2.49821829796
7130.75	2.4966237545
7131.0	2.49400424957
7131.25	2.4924223423
7131.5	2.48843193054
7131.75	2.4870018959
7132.0	2.48399972916
7132.25	2.48181033134
7132.5	2.47778177261
7132.75	2.47568464279
7133.0	2.47377562523
7133.25	2.47213172913
7133.5	2.4694185257
7133.75	2.46743535995
7134.0	2.46564292908
7134.25	2.46453666687
7134.5	2.46308350563
7134.75	2.46211409569
7135.0	2.46061635017
7135.25	2.46029543877
7135.5	2.46042513847
7135.75	2.46009850502
7136.0	2.46030664444
7136.25	2.45936179161
7136.5	2.45985460281
7136.75	2.45945096016
7137.0	2.45847725868
7137.25	2.45800113678
7137.5	2.45963740349
7137.75	2.4591126442
7138.0	2.45677638054
7138.25	2.45643520355
7138.5	2.45503115654
7138.75	2.45302081108
7139.0	2.45251584053
7139.25	2.45181870461
7139.5	2.44970870018
7139.75	2.44850683212
7140.0	2.44653129578
7140.25	2.44653582573
7140.5	2.44487929344
7140.75	2.44418883324
7141.0	2.44353795052
7141.25	2.44125032425
7141.5	2.44066953659
7141.75	2.43835997581
7142.0	2.43759894371
7142.25	2.43616867065
7142.5	2.43473815918
7142.75	2.43257761002
7143.0	2.42896151543
7143.25	2.42775440216
7143.5	2.42497158051
7143.75	2.42268514633
7144.0	2.41917204857
7144.25	2.4151828289
7144.5	2.41222667694
7144.75	2.40932798386
7145.0	2.40507364273
7145.25	2.40211987495
7145.5	2.39870381355
7145.75	2.39452409744
7146.0	2.39096665382
7146.25	2.38738250732
7146.5	2.38345766068
7146.75	2.38001561165
7147.0	2.37628626823
7147.25	2.37135338783
7147.5	2.36835455894
7147.75	2.36478662491
7148.0	2.36037516594
7148.25	2.35598564148
7148.5	2.35205340385
7148.75	2.34801459312
7149.0	2.34339570999
7149.25	2.33938384056
7149.5	2.33516526222
7149.75	2.33016109467
7150.0	2.3253326416
7150.25	2.32129955292
7150.5	2.31669425964
7150.75	2.31142449379
7151.0	2.30652928352
7151.25	2.30181097984
7151.5	2.29715657234
7151.75	2.29284858704
7152.0	2.28904223442
7152.25	2.28356981277
7152.5	2.28083968163
7152.75	2.27602148056
7153.0	2.2719066143
7153.25	2.2685303688
7153.5	2.26529216766
7153.75	2.26230502129
7154.0	2.25873374939
7154.25	2.25679993629
7154.5	2.25406551361
7154.75	2.25161743164
7155.0	2.24960255623
7155.25	2.2482111454
7155.5	2.24728703499
7155.75	2.2459628582
7156.0	2.24531316757
7156.25	2.24593424797
7156.5	2.24495744705
7156.75	2.24511599541
7157.0	2.24573135376
7157.25	2.24644970894
7157.5	2.24692821503
7157.75	2.2483086586
7158.0	2.24940371513
7158.25	2.25116181374
7158.5	2.25213027
7158.75	2.25395917892
7159.0	2.25704932213
7159.25	2.25852251053
7159.5	2.2615275383
7159.75	2.26371216774
7160.0	2.26704216003
7161.09472656	2.28070735931
7162.20947266	2.29734826088
7163.34326172	2.31544733047
7164.49707031	2.33459568024
7165.67041016	2.35587930679
7166.86376953	2.37704324722
7168.07617188	2.39802932739
7169.30859375	2.42002701759
7170.56005859	2.44364881516
7171.83154297	2.46436357498
7173.12304688	2.48009419441
7174.43359375	2.49393677711
7175.76367188	2.50337338448
7177.11376953	2.51011419296
7178.48339844	2.51399755478
7179.87255859	2.51385378838
7181.28173828	2.51071643829
7182.70996094	2.50503277779
7184.15820313	2.4957048893
7185.62597656	2.48671603203
7187.11328125	2.47839856148
7188.62011719	2.46867656708
7190.14648438	2.45891737938
7191.69287109	2.44932723045
7193.25878906	2.43912768364
7194.84423828	2.42838931084
7196.44921875	2.41827511787
7198.07373047	2.40875935555
7199.71826172	2.40074849129
7201.38183594	2.3939268589
7203.06542969	2.38836431503
7204.76855469	2.38587665558
7206.49169922	2.38520932198
7208.23388672	2.38702321053
7209.99609375	2.39076089859
7211.77783203	2.39532423019
7213.57910156	2.40253567696
7215.39990234	2.41040229797
7217.24023438	2.41898560524
7219.10058594	2.42955827713
7220.98046875	2.43886733055
7222.87988281	2.44882154465
7224.79882813	2.45891427994
7226.73730469	2.4681687355
7228.69580078	2.47802329063
7230.67333984	2.48721432686
7232.67089844	2.49718618393
7234.68798828	2.50730800629
7236.72509766	2.51629447937
7238.78125	2.52289056778
7240.85742188	2.52796459198
7242.953125	2.53032398224
7245.06835938	2.53089690208
7247.203125	2.53094148636
7249.35742188	2.52912855148
7251.53173828	2.52716326714
7253.72558594	2.52491641045
7255.93896484	2.52095270157
7258.171875	2.51832413673
7260.42431641	2.51453185081
7262.69677734	2.51085114479
7264.98828125	2.50781655312
7267.29980469	2.50745582581
7269.63085938	2.50695610046
7271.98193359	2.50827527046
7274.35205078	2.51145172119
7276.7421875	2.51399350166
7279.15185547	2.51709699631
7281.58105469	2.52013754845
7284.02978516	2.52269387245
7286.49804688	2.5256626606
7288.98632813	2.52814078331
7291.49414063	2.53105902672
7294.02148438	2.53415441513
7296.56835938	2.5372262001
7299.13476563	2.54177618027
7301.72119141	2.54550123215
7304.32666016	2.55090546608
7306.95214844	2.55640006065
7309.59716797	2.56203651428
7312.26220703	2.56709480286
7314.94628906	2.57283568382
7317.65039063	2.57769203186
7320.37353516	2.58234834671
7323.11669922	2.58647418022
7325.87988281	2.59001493454
7328.66210938	2.59289836884
7331.46435547	2.59414744377
7334.28564453	2.5959842205
7337.12695313	2.59674692154
7339.98828125	2.59721469879
7342.86865234	2.59827828407
7345.76855469	2.59954380989
7348.68847656	2.60159277916
7351.62792969	2.60363650322
7354.58691406	2.60503005981
7357.56542969	2.6073038578
7360.56396484	2.60833239555
7363.58154297	2.61124038696
7366.61914063	2.6140794754
7369.67626953	2.61659240723
7372.75292969	2.61867833138
7375.84960938	2.6209666729
7378.96533203	2.62439799309
7382.10107422	2.62814426422
7385.25634766	2.631939888
7388.43115234	2.63606190681
7391.62597656	2.64033770561
7394.83984375	2.64455628395
7398.07373047	2.64914894104
7401.32714844	2.65397024155
7404.60009766	2.65814733505
7407.89257813	2.66279602051
7411.20458984	2.66804027557
7414.53662109	2.67236471176
7417.88818359	2.67709422112
7421.25927734	2.6814494133
7424.64990234	2.6854031086
7428.06005859	2.68957424164
7431.49023438	2.69229531288
7434.93994141	2.69572257996
7438.40917969	2.69879198074
7441.89794922	2.70216393471
7445.40625	2.70520591736
7448.93457031	2.70809102058
7452.48193359	2.71079683304
7456.04931641	2.7143406868
7459.63623047	2.71763277054
7463.24316406	2.72042369843
7466.86914063	2.72355341911
7470.51513672	2.72762775421
7474.18017578	2.73133325577
7477.86523438	2.73583292961
7481.5703125	2.73877263069
7485.29443359	2.74347424507
7489.03857422	2.74758696556
7492.80175781	2.75244021416
7496.58496094	2.75729751587
7500.38769531	2.76235198975
7504.21044922	2.76746582985
7508.05224609	2.77280759811
7511.9140625	2.77782440186
7515.79541016	2.7834751606
7519.69628906	2.78839969635
7523.61669922	2.79301595688
7527.55712891	2.79818606377
7531.51660156	2.80301952362
7535.49609375	2.80752873421
7539.49511719	2.81194448471
7543.51367188	2.81673526764
7547.55175781	2.82115125656
7551.60986328	2.82526350021
7555.6875	2.82973265648
7559.78466797	2.83426952362
7563.90136719	2.83842921257
7568.03759766	2.84345769882
7572.19384766	2.84815597534
7576.36914063	2.85268211365
7580.56445313	2.85768437386
7584.77929688	2.86263608932
7589.01367188	2.86763358116
7593.26806641	2.87279009819
7597.54199219	2.87831020355
7601.83496094	2.88351941109
7606.14794922	2.88901257515
7610.48046875	2.89449524879
7614.83300781	2.9002726078
7619.20458984	2.90628170967
7623.59619141	2.91249346733
7628.00732422	2.9186899662
7632.43798828	2.92401385307
7636.88818359	2.92998385429
7641.35839844	2.93590664864
7645.84814453	2.94122481346
7650.35742188	2.94698667526
7654.88623047	2.95310354233
7659.43457031	2.95950984955
7664.00244141	2.96501922607
7668.59033203	2.96978163719
7673.19775391	2.9756937027
7677.82470703	2.98198127747
7682.47119141	2.98762726784
7687.13720703	2.99360966682
7691.82324219	2.9998459816
7696.52832031	3.00543403625
7701.25341797	3.01140284538
7705.99804688	3.01832509041
7710.76269531	3.02356600761
7715.54638672	3.03033423424
7720.35009766	3.03696131706
7725.17333984	3.04262590408
7730.01611328	3.04933643341
7734.87841797	3.05573654175
7739.76025391	3.06144714355
7744.66210938	3.06812548637
7749.58349609	3.07497191429
7754.52441406	3.08123636246
7759.48486328	3.08786678314
7764.46484375	3.09479427338
7769.46484375	3.10132312775
7774.484375	3.10828018188
7779.5234375	3.11501765251
7784.58203125	3.12174773216
7789.66015625	3.12888002396
7794.7578125	3.13603878021
7799.87548828	3.14267730713
7805.01269531	3.14986419678
7810.16943359	3.15621495247
7815.34570313	3.16330361366
7820.54199219	3.17061161995
7825.75732422	3.17725777626
7830.99267578	3.18436932564
7836.24755859	3.19127726555
7841.52197266	3.19871377945
7846.81591797	3.20572328568
7852.12988281	3.2128329277
7857.46337891	3.22006034851
7862.81640625	3.22716712952
7868.18896484	3.2342646122
7873.58105469	3.24149727821
7878.99267578	3.24883174896
7884.42431641	3.2565510273
7889.87548828	3.2641055584
7895.34619141	3.27170300484
7900.83642578	3.27996659279
7906.34667969	3.28739500046
7911.87597656	3.29600286484
7917.42529297	3.30339050293
7922.99414063	3.312063694
7928.58251953	3.31970143318
7934.19042969	3.32860970497
7939.81835938	3.33672857285
7945.46582031	3.34558367729
7951.1328125	3.353921175
7956.81933594	3.36217308044
7962.52539063	3.37060165405
7968.25097656	3.37911844254
7973.99658203	3.38778614998
7979.76171875	3.39572548866
7985.54638672	3.40414094925
7991.35058594	3.41277551651
7997.17480469	3.42119503021
8003.01806641	3.43003439903
8008.88134766	3.43850946426
8014.76416016	3.4477083683
8020.66650391	3.45692682266
8026.58837891	3.46571350098
8032.53027344	3.47458839417
8038.49169922	3.48381066322
8044.47216797	3.49272227287
8050.47314453	3.5018966198
8056.49316406	3.51067709923
8062.53271484	3.51906895638
8068.59228516	3.52854585648
8074.67138672	3.53696703911
8080.77001953	3.54621529579
8086.88818359	3.55557584763
8093.02587891	3.56490325928
8099.18359375	3.57401704788
8105.36083984	3.58356285095
