# Averaged Data //Vboxsvr/xafsdata/Standards/siderite_n_001_fl.avg created by SamView
6880.0	0.23429261148
6890.23828125	0.235394254327
6900.47607422	0.236028209329
6910.71435547	0.236362293363
6920.95214844	0.236986249685
6931.19042969	0.238096520305
6941.42871094	0.238548755646
6951.66650391	0.239625662565
6961.90478516	0.241711840034
6972.14306641	0.242959931493
6982.38085938	0.245009958744
6992.61914063	0.246140569448
7002.85693359	0.249420806766
7013.09521484	0.252009510994
7023.33349609	0.255477011204
7033.57128906	0.258879870176
7043.80957031	0.263654559851
7054.04785156	0.270177721977
7064.28564453	0.280038565397
7074.52392578	0.292194962502
7084.76171875	0.313697218895
7095.0	0.353630900383
7095.25	0.354647874832
7095.5	0.356017947197
7095.75	0.358278989792
7096.0	0.359021574259
7096.25	0.360771179199
7096.5	0.362714290619
7096.75	0.364004284143
7097.0	0.365956306458
7097.25	0.368054896593
7097.5	0.36905875802
7097.75	0.371276080608
7098.0	0.373683899641
7098.25	0.374299794436
7098.5	0.377230525017
7098.75	0.378696680069
7099.0	0.381015896797
7099.25	0.382840722799
7099.5	0.38561335206
7099.75	0.386782705784
7100.0	0.389818191528
7100.25	0.391738563776
7100.5	0.395001202822
7100.75	0.396973490715
7101.0	0.399603903294
7101.25	0.401408523321
7101.5	0.404152542353
7101.75	0.40753403306
7102.0	0.410353809595
7102.25	0.413147866726
7102.5	0.416425645351
7102.75	0.419052988291
7103.0	0.422343432903
7103.25	0.426191866398
7103.5	0.429010868073
7103.75	0.433867007494
7104.0	0.435376435518
7104.25	0.439746111631
7104.5	0.444454759359
7104.75	0.448599278927
7105.0	0.452251315117
7105.25	0.457354009151
7105.5	0.461865633726
7105.75	0.467446833849
7106.0	0.47229295969
7106.25	0.477584272623
7106.5	0.482488512993
7106.75	0.489245951176
7107.0	0.494266599417
7107.25	0.501703083515
7107.5	0.508375585079
7107.75	0.515521228313
7108.0	0.524933338165
7108.25	0.532905757427
7108.5	0.542206525803
7108.75	0.553016781807
7109.0	0.564187586308
7109.25	0.577984035015
7109.5	0.59449917078
7109.75	0.613114714622
7110.0	0.638569772243
7110.25	0.668162584305
7110.5	0.706661641598
7110.75	0.744770109653
7111.0	0.790119290352
7111.25	0.829793274403
7111.5	0.864420831203
7111.75	0.884339332581
7112.0	0.895823955536
7112.25	0.901096940041
7112.5	0.904323279858
7112.75	0.908269941807
7113.0	0.918049156666
7113.25	0.930571854115
7113.5	0.943203389645
7113.75	0.956679522991
7114.0	0.969373881817
7114.25	0.978880107403
7114.5	0.995567858219
7114.75	1.01590013504
7115.0	1.05181443691
7115.25	1.09143996239
7115.5	1.14505457878
7115.75	1.20843696594
7116.0	1.29578781128
7116.25	1.39358830452
7116.5	1.52537596226
7116.75	1.67368400097
7117.0	1.86419713497
7117.25	2.08376479149
7117.5	2.33629965782
7117.75	2.60365414619
7118.0	2.91287779808
7118.25	3.22194766998
7118.5	3.53287243843
7118.75	3.85321760178
7119.0	4.20579624176
7119.25	4.57008171082
7119.5	4.9343380928
7119.75	5.35841751099
7120.0	5.81579971313
7120.25	6.3454208374
7120.5	6.89733839035
7120.75	7.5524392128
7121.0	8.21865272522
7121.25	8.96465873718
7121.5	9.66486549377
7121.75	10.455121994
7122.0	11.1598043442
7122.25	11.9105596542
7122.5	12.5345535278
7122.75	13.1980237961
7123.0	13.7009925842
7123.25	14.1575126648
7123.5	14.4723930359
7123.75	14.7561855316
7124.0	14.9300737381
7124.25	15.0628890991
7124.5	15.1316385269
7124.75	15.1636247635
7125.0	15.1596860886
7125.25	15.1418151855
7125.5	15.0941934586
7125.75	15.0340862274
7126.0	14.968296051
7126.25	14.8840694427
7126.5	14.7936306
7126.75	14.6444177628
7127.0	14.489528656
7127.25	14.2776479721
7127.5	14.0417289734
7127.75	13.7595472336
7128.0	13.4788475037
7128.25	13.1849956512
7128.5	12.9246635437
7128.75	12.6470623016
7129.0	12.4160757065
7129.25	12.2045478821
7129.5	12.0184431076
7129.75	11.8544473648
7130.0	11.7168340683
7130.25	11.6000499725
7130.5	11.50390625
7130.75	11.4325523376
7131.0	11.3962898254
7131.25	11.3984384537
7131.5	11.4318675995
7131.75	11.4920454025
7132.0	11.5878009796
7132.25	11.6999378204
7132.5	11.8341550827
7132.75	11.9743175507
7133.0	12.1217489243
7133.25	12.2488594055
7133.5	12.3805618286
7133.75	12.494893074
7134.0	12.5977869034
7134.25	12.666009903
7134.5	12.732963562
7134.75	12.7842636108
7135.0	12.8149185181
7135.25	12.8439664841
7135.5	12.8699321747
7135.75	12.8824195862
7136.0	12.8958129883
7136.25	12.8885717392
7136.5	12.8783435822
7136.75	12.8586578369
7137.0	12.8204240799
7137.25	12.7842969894
7137.5	12.7229394913
7137.75	12.6583099365
7138.0	12.5843858719
7138.25	12.503326416
7138.5	12.3940172195
7138.75	12.2716169357
7139.0	12.1389598846
7139.25	12.007774353
7139.5	11.8489322662
7139.75	11.71185112
7140.0	11.5530052185
7140.25	11.4252080917
7140.5	11.2870779037
7140.75	11.1642751694
7141.0	11.0356445313
7141.25	10.9250478745
7141.5	10.8038768768
7141.75	10.6919794083
7142.0	10.5808706284
7142.25	10.4786090851
7142.5	10.3615093231
7142.75	10.2579059601
7143.0	10.1559886932
7143.25	10.0495061874
7143.5	9.94487476349
7143.75	9.83421993256
7144.0	9.7338848114
7144.25	9.63658714294
7144.5	9.5390586853
7144.75	9.44721603394
7145.0	9.36656284332
7145.25	9.28962802887
7145.5	9.22389698029
7145.75	9.15792655945
7146.0	9.09949016571
7146.25	9.05144691467
7146.5	9.01041507721
7146.75	8.96917533875
7147.0	8.93408679962
7147.25	8.90319442749
7147.5	8.88115024567
7147.75	8.86110877991
7148.0	8.84681606293
7148.25	8.8351354599
7148.5	8.82513523102
7148.75	8.81823062897
7149.0	8.8167886734
7149.25	8.81644058228
7149.5	8.82594299316
7149.75	8.83745574951
7150.0	8.84893512726
7150.25	8.86550045013
7150.5	8.8810377121
7150.75	8.90767192841
7151.0	8.93047237396
7151.25	8.95757293701
7151.5	8.97280693054
7151.75	9.00914096832
7152.0	9.0322265625
7152.25	9.0684633255
7152.5	9.09730434418
7152.75	9.13163280487
7153.0	9.16882801056
7153.25	9.20621776581
7153.5	9.24539756775
7153.75	9.29459953308
7154.0	9.33867359161
7154.25	9.39453601837
7154.5	9.44759654999
7154.75	9.51081466675
7155.0	9.57023334503
7155.25	9.64216423035
7155.5	9.71150684357
7155.75	9.79068660736
7156.0	9.86256980896
7156.25	9.94830989838
7156.5	10.0245637894
7156.75	10.1219186783
7157.0	10.196518898
7157.25	10.2897891998
7157.5	10.3739681244
7157.75	10.4582138062
7158.0	10.5336961746
7158.25	10.6159505844
7158.5	10.6888246536
7158.75	10.7607889175
7159.0	10.8322277069
7159.25	10.8970565796
7159.5	10.9481868744
7159.75	11.0021371841
7160.0	11.0491542816
7161.09472656	11.2068881989
7162.20947266	11.3262424469
7163.34326172	11.4574384689
7164.49707031	11.6292190552
7165.67041016	11.8087663651
7166.86376953	11.9739408493
7168.07617188	12.1083488464
7169.30859375	12.2143440247
7170.56005859	12.290561676
7171.83154297	12.3061294556
7173.12304688	12.2114896774
7174.43359375	12.0500049591
7175.76367188	11.8652734756
7177.11376953	11.6895265579
7178.48339844	11.5674877167
7179.87255859	11.4947385788
7181.28173828	11.4675321579
7182.70996094	11.4605121613
7184.15820313	11.4737453461
7185.62597656	11.4919567108
7187.11328125	11.5076217651
7188.62011719	11.5080804825
7190.14648438	11.4872055054
7191.69287109	11.4464292526
7193.25878906	11.3739109039
7194.84423828	11.2755002975
7196.44921875	11.1576061249
7198.07373047	11.0492649078
7199.71826172	10.9732217789
7201.38183594	10.9411287308
7203.06542969	10.9538478851
7204.76855469	10.9946422577
7206.49169922	11.0512781143
7208.23388672	11.0796995163
7209.99609375	11.0880670547
7211.77783203	11.0873880386
7213.57910156	11.099486351
7215.39990234	11.1336612701
7217.24023438	11.1940279007
7219.10058594	11.2522325516
7220.98046875	11.293715477
7222.87988281	11.3162288666
7224.79882813	11.3311166763
7226.73730469	11.3619041443
7228.69580078	11.4141263962
7230.67333984	11.4797592163
7232.67089844	11.5334625244
7234.68798828	11.5699586868
7236.72509766	11.5947399139
7238.78125	11.626288414
7240.85742188	11.6554889679
7242.953125	11.6766328812
7245.06835938	11.6907949448
7247.203125	11.7131376266
7249.35742188	11.7477111816
7251.53173828	11.7941255569
7253.72558594	11.8461484909
7255.93896484	11.8529262543
7258.171875	11.8618526459
7260.42431641	11.7711782455
7262.69677734	11.7345504761
7264.98828125	11.6599636078
7267.29980469	11.5965051651
7269.63085938	11.5493135452
7271.98193359	11.5128555298
7274.35205078	11.4839115143
7276.7421875	11.4738826752
7279.15185547	11.4928474426
7281.58105469	11.5417470932
7284.02978516	11.6022815704
7286.49804688	11.6412801743
7288.98632813	11.6572961807
7291.49414063	11.6485671997
7294.02148438	11.6386137009
7296.56835938	11.6385383606
7299.13476563	11.6469736099
7301.72119141	11.6497840881
7304.32666016	11.6442947388
7306.95214844	11.638258934
7309.59716797	11.6418972015
7312.26220703	11.6424789429
7314.94628906	11.646730423
7317.65039063	11.6523122787
7320.37353516	11.6741552353
7323.11669922	11.7129926682
7325.87988281	11.7523040771
7328.66210938	11.7795953751
7331.46435547	11.7928085327
7334.28564453	11.807393074
7337.12695313	11.8276500702
7339.98828125	11.8600301743
7342.86865234	11.9008140564
7345.76855469	11.9346523285
7348.68847656	11.9562273026
7351.62792969	11.9653158188
7354.58691406	11.9610280991
7357.56542969	11.9392576218
7360.56396484	11.9084568024
7363.58154297	11.8648586273
7366.61914063	11.8282194138
7369.67626953	11.8019895554
7372.75292969	11.7927732468
7375.84960938	11.7947750092
7378.96533203	11.8083372116
7382.10107422	11.8212623596
7385.25634766	11.8334217072
7388.43115234	11.8508872986
7391.62597656	11.8565654755
7394.83984375	11.857676506
7398.07373047	11.8589448929
7401.32714844	11.8778543472
7404.60009766	11.8973245621
7407.89257813	11.9243373871
7411.20458984	11.9556846619
7414.53662109	11.9767875671
7417.88818359	12.0009155273
7421.25927734	12.0195798874
7424.64990234	12.029759407
7428.06005859	12.029127121
7431.49023438	12.0198564529
7434.93994141	12.0130090714
7438.40917969	12.01130867
7441.89794922	12.0172472
7445.40625	12.0302057266
7448.93457031	12.0482301712
7452.48193359	12.0679225922
7456.04931641	12.0859975815
7459.63623047	12.100186348
7463.24316406	12.117389679
7466.86914063	12.1346235275
7470.51513672	12.1454706192
7474.18017578	12.1517734528
7477.86523438	12.1591310501
7481.5703125	12.1593446732
7485.29443359	12.165555954
7489.03857422	12.16913414
7492.80175781	12.1687555313
7496.58496094	12.1742124557
7500.38769531	12.1838207245
7504.21044922	12.1958684921
7508.05224609	12.2032718658
7511.9140625	12.2117843628
7515.79541016	12.2173814774
7519.69628906	12.223815918
7523.61669922	12.2388153076
7527.55712891	12.2493896484
7531.51660156	12.2654371262
7535.49609375	12.282626152
7539.49511719	12.2986268997
7543.51367188	12.3173561096
7547.55175781	12.3278360367
7551.60986328	12.340587616
7555.6875	12.3605117798
7559.78466797	12.3663454056
7563.90136719	12.3742551804
7568.03759766	12.3822937012
7572.19384766	12.3953714371
7576.36914063	12.4146966934
7580.56445313	12.4342832565
7584.77929688	12.4518823624
7589.01367188	12.4715232849
7593.26806641	12.4885263443
7597.54199219	12.4997024536
7601.83496094	12.5111036301
7606.14794922	12.5148286819
7610.48046875	12.5255270004
7614.83300781	12.5384187698
7619.20458984	12.5481758118
7623.59619141	12.5582208633
7628.00732422	12.5684137344
7632.43798828	12.5871191025
7636.88818359	12.5933942795
7641.35839844	12.6048631668
7645.84814453	12.6208944321
7650.35742188	12.6346340179
7654.88623047	12.646654129
7659.43457031	12.6604480743
7664.00244141	12.6739530563
7668.59033203	12.6859540939
7673.19775391	12.6986179352
7677.82470703	12.7156715393
7682.47119141	12.7309732437
7687.13720703	12.7490243912
7691.82324219	12.7689933777
7696.52832031	12.7853059769
7701.25341797	12.8027925491
7705.99804688	12.813794136
7710.76269531	12.8323431015
7715.54638672	12.8473129272
7720.35009766	12.8615026474
7725.17333984	12.8751087189
7730.01611328	12.8884534836
7734.87841797	12.903429985
7739.76025391	12.9183444977
7744.66210938	12.93400383
7749.58349609	12.9516162872
7754.52441406	12.96530056
7759.48486328	12.9789438248
7764.46484375	12.9932785034
7769.46484375	13.0096483231
7774.484375	13.0254163742
7779.5234375	13.0387544632
7784.58203125	13.0561227798
7789.66015625	13.0737819672
7794.7578125	13.0880489349
7799.87548828	13.1031589508
7805.01269531	13.1183290482
7810.16943359	13.1343593597
7815.34570313	13.1487178802
7820.54199219	13.1632051468
7825.75732422	13.178486824
7830.99267578	13.192814827
7836.24755859	13.2076940536
7841.52197266	13.2236413956
7846.81591797	13.2427997589
7852.12988281	13.2596473694
7857.46337891	13.2775497437
7862.81640625	13.2945356369
7868.18896484	13.3117933273
7873.58105469	13.3284883499
7878.99267578	13.3477363586
7884.42431641	13.3657655716
7889.87548828	13.3837480545
7895.34619141	13.4017724991
7900.83642578	13.4154367447
7906.34667969	13.4359884262
7911.87597656	13.4558963776
7917.42529297	13.4761924744
7922.99414063	13.4932384491
7928.58251953	13.5098686218
7934.19042969	13.5279150009
7939.81835938	13.5456466675
7945.46582031	13.5628442764
7951.1328125	13.5830106735
7956.81933594	13.5994882584
7962.52539063	13.618976593
7968.25097656	13.6368427277
7973.99658203	13.6545810699
7979.76171875	13.6747722626
7985.54638672	13.6930065155
7991.35058594	13.7126197815
7997.17480469	13.7307662964
8003.01806641	13.7501764297
8008.88134766	13.7688064575
8014.76416016	13.7860183716
8020.66650391	13.8056058884
8026.58837891	13.8235273361
8032.53027344	13.8432922363
8038.49169922	13.8620452881
8044.47216797	13.8819322586
8050.47314453	13.9007911682
8056.49316406	13.9183912277
8062.53271484	13.9408216476
8068.59228516	13.9587974548
8074.67138672	13.9766979218
8080.77001953	13.9984903336
8086.88818359	14.0165052414
8093.02587891	14.0361270905
8099.18359375	14.0576686859
8105.36083984	14.0768127441
