# Averaged Data //Vboxsvr/xafsdata/Standards/siderite_s_001_fl.avg created by SamView
6880.0	0.0927059277892
6890.23828125	0.093329206109
6900.47607422	0.0933915153146
6910.71435547	0.0939994752407
6920.95214844	0.0945226252079
6931.19042969	0.0951546579599
6941.42871094	0.0957639664412
6951.66650391	0.0971948206425
6961.90478516	0.0976401567459
6972.14306641	0.0988731458783
6982.38085938	0.100754611194
6992.61914063	0.102672174573
7002.85693359	0.105348922312
7013.09521484	0.108319289982
7023.33349609	0.111282490194
7033.57128906	0.115781128407
7043.80957031	0.120493121445
7054.04785156	0.128682076931
7064.28564453	0.139564484358
7074.52392578	0.154251053929
7084.76171875	0.178529411554
7095.0	0.225102320313
7095.25	0.226878255606
7095.5	0.228760823607
7095.75	0.23007504642
7096.0	0.23232999444
7096.25	0.233971372247
7096.5	0.236415490508
7096.75	0.237462311983
7097.0	0.239256411791
7097.25	0.24209664762
7097.5	0.243081822991
7097.75	0.245885878801
7098.0	0.247512295842
7098.25	0.249990940094
7098.5	0.252231627703
7098.75	0.254661470652
7099.0	0.257124423981
7099.25	0.259013682604
7099.5	0.261496782303
7099.75	0.264139205217
7100.0	0.267238140106
7100.25	0.26906400919
7100.5	0.271925777197
7100.75	0.274834930897
7101.0	0.277805566788
7101.25	0.280585229397
7101.5	0.283819496632
7101.75	0.286859840155
7102.0	0.289888292551
7102.25	0.29374653101
7102.5	0.296493202448
7102.75	0.300844311714
7103.0	0.303851693869
7103.25	0.308638244867
7103.5	0.311761498451
7103.75	0.316107481718
7104.0	0.31926548481
7104.25	0.324166715145
7104.5	0.328533351421
7104.75	0.333020359278
7105.0	0.337580919266
7105.25	0.34262368083
7105.5	0.347888827324
7105.75	0.354794919491
7106.0	0.358710497618
7106.25	0.365907818079
7106.5	0.370936483145
7106.75	0.378526836634
7107.0	0.384864926338
7107.25	0.393305897713
7107.5	0.40074005723
7107.75	0.407968878746
7108.0	0.417640924454
7108.25	0.427650898695
7108.5	0.438062012196
7108.75	0.449409008026
7109.0	0.461294412613
7109.25	0.475717395544
7109.5	0.493631988764
7109.75	0.512781620026
7110.0	0.537834882736
7110.25	0.567366540432
7110.5	0.60539239645
7110.75	0.645652592182
7111.0	0.695149838924
7111.25	0.741470813751
7111.5	0.791364490986
7111.75	0.832914948463
7112.0	0.873415827751
7112.25	0.907034099102
7112.5	0.942758262157
7112.75	0.973914384842
7113.0	1.00296139717
7113.25	1.02359950542
7113.5	1.0412658453
7113.75	1.05352580547
7114.0	1.07162177563
7114.25	1.08438897133
7114.5	1.10030817986
7114.75	1.11607050896
7115.0	1.1398473978
7115.25	1.16671252251
7115.5	1.21162199974
7115.75	1.26812410355
7116.0	1.35266637802
7116.25	1.44907140732
7116.5	1.5771381855
7116.75	1.71747088432
7117.0	1.89862132072
7117.25	2.09401965141
7117.5	2.32108449936
7117.75	2.55264854431
7118.0	2.82435703278
7118.25	3.08801460266
7118.5	3.36015415192
7118.75	3.64611816406
7119.0	3.95423364639
7119.25	4.27436923981
7119.5	4.59236478806
7119.75	4.94054317474
7120.0	5.29358959198
7120.25	5.66562604904
7120.5	6.01297569275
7120.75	6.40061330795
7121.0	6.74483966827
7121.25	7.09716892242
7121.5	7.39791250229
7121.75	7.70669126511
7122.0	7.95767974854
7122.25	8.21718883514
7122.5	8.41761875153
7122.75	8.6307964325
7123.0	8.81041049957
7123.25	8.99592685699
7123.5	9.15572929382
7123.75	9.33541202545
7124.0	9.4909658432
7124.25	9.65772247314
7124.5	9.78911495209
7124.75	9.94515037537
7125.0	10.0726385117
7125.25	10.2044553757
7125.5	10.3195066452
7125.75	10.4465789795
7126.0	10.5564899445
7126.25	10.6758346558
7126.5	10.7864027023
7126.75	10.9091491699
7127.0	11.014796257
7127.25	11.1307525635
7127.5	11.2274160385
7127.75	11.3332271576
7128.0	11.418050766
7128.25	11.5071468353
7128.5	11.5726737976
7128.75	11.6367273331
7129.0	11.685092926
7129.25	11.7165746689
7129.5	11.7349596024
7129.75	11.7470197678
7130.0	11.7385149002
7130.25	11.7292718887
7130.5	11.7020893097
7130.75	11.6765832901
7131.0	11.633020401
7131.25	11.5989599228
7131.5	11.5557394028
7131.75	11.5143289566
7132.0	11.4622144699
7132.25	11.4135580063
7132.5	11.3699369431
7132.75	11.3199453354
7133.0	11.2741241455
7133.25	11.2329444885
7133.5	11.1910448074
7133.75	11.1500034332
7134.0	11.107131958
7134.25	11.0717744827
7134.5	11.0336894989
7134.75	11.0016822815
7135.0	10.9701623917
7135.25	10.9439344406
7135.5	10.9158945084
7135.75	10.8879127502
7136.0	10.8654699326
7136.25	10.8384180069
7136.5	10.8134660721
7136.75	10.7891979218
7137.0	10.7702875137
7137.25	10.7498607635
7137.5	10.7240085602
7137.75	10.7057914734
7138.0	10.6864900589
7138.25	10.6679878235
7138.5	10.6474132538
7138.75	10.6332502365
7139.0	10.6129684448
7139.25	10.600104332
7139.5	10.5827255249
7139.75	10.564286232
7140.0	10.5406637192
7140.25	10.5311641693
7140.5	10.5140647888
7140.75	10.5031356812
7141.0	10.4834537506
7141.25	10.4706306458
7141.5	10.4496221542
7141.75	10.432346344
7142.0	10.4153242111
7142.25	10.3936796188
7142.5	10.3764448166
7142.75	10.3549814224
7143.0	10.3327150345
7143.25	10.3087463379
7143.5	10.2864217758
7143.75	10.2564001083
7144.0	10.2345952988
7144.25	10.2137641907
7144.5	10.1849689484
7144.75	10.15828228
7145.0	10.1334161758
7145.25	10.1050128937
7145.5	10.0795431137
7145.75	10.0541267395
7146.0	10.0306720734
7146.25	10.0092830658
7146.5	9.98288631439
7146.75	9.96041202545
7147.0	9.93790149689
7147.25	9.91351222992
7147.5	9.8885269165
7147.75	9.86887741089
7148.0	9.84279155731
7148.25	9.81637001038
7148.5	9.79447078705
7148.75	9.76672935486
7149.0	9.7497215271
7149.25	9.71661567688
7149.5	9.69331645966
7149.75	9.67251396179
7150.0	9.65273475647
7150.25	9.62739086151
7150.5	9.60729694366
7150.75	9.58511066437
7151.0	9.57248401642
7151.25	9.55109119415
7151.5	9.53541183472
7151.75	9.52395057678
7152.0	9.50921726227
7152.25	9.49613666534
7152.5	9.48940944672
7152.75	9.48147106171
7153.0	9.47478961945
7153.25	9.46548461914
7153.5	9.46091842651
7153.75	9.46049404144
7154.0	9.4545173645
7154.25	9.46113777161
7154.5	9.45812320709
7154.75	9.45940494537
7155.0	9.45766830444
7155.25	9.46892738342
7155.5	9.46601390839
7155.75	9.47348594666
7156.0	9.47688770294
7156.25	9.48635578156
7156.5	9.49601173401
7156.75	9.50474834442
7157.0	9.51767444611
7157.25	9.522356987
7157.5	9.53176021576
7157.75	9.54473686218
7158.0	9.55609035492
7158.25	9.56731987
7158.5	9.58069992065
7158.75	9.59205436707
7159.0	9.60022354126
7159.25	9.61972236633
7159.5	9.63203144073
7159.75	9.64569473267
7160.0	9.65982246399
7161.09472656	9.72756195068
7162.20947266	9.80660152435
7163.34326172	9.89221572876
7164.49707031	9.98642253876
7165.67041016	10.0849580765
7166.86376953	10.1807584763
7168.07617188	10.2683086395
7169.30859375	10.3561229706
7170.56005859	10.4373025894
7171.83154297	10.5127983093
7173.12304688	10.5709075928
7174.43359375	10.6190814972
7175.76367188	10.655462265
7177.11376953	10.666888237
7178.48339844	10.6681871414
7179.87255859	10.6642255783
7181.28173828	10.6581201553
7182.70996094	10.6452178955
7184.15820313	10.6343488693
7185.62597656	10.6218557358
7187.11328125	10.6144323349
7188.62011719	10.610203743
7190.14648438	10.6045637131
7191.69287109	10.5940828323
7193.25878906	10.5843267441
7194.84423828	10.5786724091
7196.44921875	10.5713758469
7198.07373047	10.567284584
7199.71826172	10.5632295609
7201.38183594	10.5595579147
7203.06542969	10.5519247055
7204.76855469	10.5434799194
7206.49169922	10.5330238342
7208.23388672	10.5207595825
7209.99609375	10.5059890747
7211.77783203	10.5023450851
7213.57910156	10.4990930557
7215.39990234	10.4975547791
7217.24023438	10.502240181
7219.10058594	10.5113267899
7220.98046875	10.5227460861
7222.87988281	10.5334024429
7224.79882813	10.5523281097
7226.73730469	10.5658836365
7228.69580078	10.5833530426
7230.67333984	10.600982666
7232.67089844	10.6202373505
7234.68798828	10.6415719986
7236.72509766	10.6678190231
7238.78125	10.6945457458
7240.85742188	10.7219371796
7242.953125	10.7482433319
7245.06835938	10.7725467682
7247.203125	10.8005199432
7249.35742188	10.8256187439
7251.53173828	10.854970932
7253.72558594	10.8804569244
7255.93896484	10.8857603073
7258.171875	10.9201440811
7260.42431641	10.9147062302
7262.69677734	10.978102684
7264.98828125	10.9922323227
7267.29980469	11.0083522797
7269.63085938	11.0170087814
7271.98193359	11.0244140625
7274.35205078	11.0333814621
7276.7421875	11.0368852615
7279.15185547	11.0397386551
7281.58105469	11.0403108597
7284.02978516	11.0376596451
7286.49804688	11.0302906036
7288.98632813	11.0237293243
7291.49414063	11.0149822235
7294.02148438	11.0170898438
7296.56835938	11.0213594437
7299.13476563	11.0241327286
7301.72119141	11.033036232
7304.32666016	11.0522842407
7306.95214844	11.0725717545
7309.59716797	11.0935134888
7312.26220703	11.1207351685
7314.94628906	11.141166687
7317.65039063	11.1600828171
7320.37353516	11.1778783798
7323.11669922	11.1905889511
7325.87988281	11.2065086365
7328.66210938	11.2209291458
7331.46435547	11.2389574051
7334.28564453	11.2571754456
7337.12695313	11.276260376
7339.98828125	11.289557457
7342.86865234	11.3017730713
7345.76855469	11.312912941
7348.68847656	11.3240737915
7351.62792969	11.3385486603
7354.58691406	11.3549032211
7357.56542969	11.3728904724
7360.56396484	11.3877725601
7363.58154297	11.4049768448
7366.61914063	11.4157886505
7369.67626953	11.4320068359
7372.75292969	11.4491891861
7375.84960938	11.4665718079
7378.96533203	11.4834041595
7382.10107422	11.5054664612
7385.25634766	11.5203580856
7388.43115234	11.539068222
7391.62597656	11.5574712753
7394.83984375	11.5724945068
7398.07373047	11.5901317596
7401.32714844	11.6070899963
7404.60009766	11.62408638
7407.89257813	11.6369981766
7411.20458984	11.6508245468
7414.53662109	11.665892601
7417.88818359	11.6753349304
7421.25927734	11.6877422333
7424.64990234	11.7011966705
7428.06005859	11.7182664871
7431.49023438	11.7309837341
7434.93994141	11.750623703
7438.40917969	11.7711639404
7441.89794922	11.7870054245
7445.40625	11.8050575256
7448.93457031	11.8236217499
7452.48193359	11.8408546448
7456.04931641	11.8626031876
7459.63623047	11.8843050003
7463.24316406	11.9081726074
7466.86914063	11.9334058762
7470.51513672	11.9582300186
7474.18017578	11.9833612442
7477.86523438	12.0042543411
7481.5703125	12.0255346298
7485.29443359	12.0472021103
7489.03857422	12.066116333
7492.80175781	12.0863723755
7496.58496094	12.1029577255
7500.38769531	12.1225242615
7504.21044922	12.1395606995
7508.05224609	12.1602287292
7511.9140625	12.1784124374
7515.79541016	12.1989278793
7519.69628906	12.2136058807
7523.61669922	12.2382726669
7527.55712891	12.2576799393
7531.51660156	12.276386261
7535.49609375	12.3000030518
7539.49511719	12.3233995438
7543.51367188	12.3473644257
7547.55175781	12.3715333939
7551.60986328	12.393655777
7555.6875	12.4214639664
7559.78466797	12.4460411072
7563.90136719	12.4693489075
7568.03759766	12.4942092896
7572.19384766	12.516204834
7576.36914063	12.5374984741
7580.56445313	12.5619039536
7584.77929688	12.5836467743
7589.01367188	12.6035356522
7593.26806641	12.6272993088
7597.54199219	12.6493148804
7601.83496094	12.6722841263
7606.14794922	12.6960315704
7610.48046875	12.7188396454
7614.83300781	12.7437200546
7619.20458984	12.767624855
7623.59619141	12.7912721634
7628.00732422	12.8136873245
7632.43798828	12.8507881165
7636.88818359	12.8736839294
7641.35839844	12.8997850418
7645.84814453	12.9288921356
7650.35742188	12.956577301
7654.88623047	12.984869957
7659.43457031	13.0103616714
7664.00244141	13.0367298126
7668.59033203	13.0633125305
7673.19775391	13.0887994766
7677.82470703	13.1155252457
7682.47119141	13.1389122009
7687.13720703	13.1671552658
7691.82324219	13.1931190491
7696.52832031	13.2198667526
7701.25341797	13.2458410263
7705.99804688	13.2706356049
7710.76269531	13.2975940704
7715.54638672	13.3269119263
7720.35009766	13.3530836105
7725.17333984	13.3800706863
7730.01611328	13.4069137573
7734.87841797	13.436003685
7739.76025391	13.4632167816
7744.66210938	13.493265152
7749.58349609	13.5201406479
7754.52441406	13.5502748489
7759.48486328	13.5790700912
7764.46484375	13.6095466614
7769.46484375	13.6393289566
7774.484375	13.6689519882
7779.5234375	13.6976099014
7784.58203125	13.7266206741
7789.66015625	13.7570505142
7794.7578125	13.7882423401
7799.87548828	13.816781044
7805.01269531	13.8448143005
7810.16943359	13.8757972717
7815.34570313	13.9042434692
7820.54199219	13.9334259033
7825.75732422	13.96530056
7830.99267578	13.9954557419
7836.24755859	14.0257539749
7841.52197266	14.0580434799
7846.81591797	14.0878486633
7852.12988281	14.1184806824
7857.46337891	14.1504001617
7862.81640625	14.1831283569
7868.18896484	14.2146816254
7873.58105469	14.2471323013
7878.99267578	14.2783851624
7884.42431641	14.3139419556
7889.87548828	14.3449640274
7895.34619141	14.3805818558
7900.83642578	14.4106492996
7906.34667969	14.443944931
7911.87597656	14.4772672653
7917.42529297	14.5113525391
7922.99414063	14.5442781448
7928.58251953	14.5782003403
7934.19042969	14.6130905151
7939.81835938	14.6468954086
7945.46582031	14.680773735
7951.1328125	14.7137947083
7956.81933594	14.7463855743
7962.52539063	14.785276413
7968.25097656	14.8216629028
7973.99658203	14.8549804688
7979.76171875	14.8901100159
7985.54638672	14.9258041382
7991.35058594	14.9610404968
7997.17480469	14.9974021912
8003.01806641	15.0323801041
8008.88134766	15.0688896179
8014.76416016	15.1052370071
8020.66650391	15.1385469437
8026.58837891	15.1764097214
8032.53027344	15.2105493546
8038.49169922	15.2466335297
8044.47216797	15.2850446701
8050.47314453	15.3216075897
8056.49316406	15.3569660187
8062.53271484	15.3946256638
8068.59228516	15.4303607941
8074.67138672	15.4703102112
8080.77001953	15.5053472519
8086.88818359	15.543548584
8093.02587891	15.5811443329
8099.18359375	15.6156749725
8105.36083984	15.6566543579
