# Averaged Data //Vboxsvr/xafsdata/Standards/vivianite_004_fl.avg created by SamView
6880.0	0.0139954295009
6890.23828125	0.0140699427575
6900.47607422	0.0141445286572
6910.71435547	0.0143131511286
6920.95214844	0.0143269216642
6931.19042969	0.0144454659894
6941.42871094	0.0145254544914
6951.66650391	0.014670971781
6961.90478516	0.0148428827524
6972.14306641	0.0150846289471
6982.38085938	0.0152879515663
6992.61914063	0.0155510799959
7002.85693359	0.0159217473119
7013.09521484	0.0162031017244
7023.33349609	0.0166191514581
7033.57128906	0.0171457473189
7043.80957031	0.0178043153137
7054.04785156	0.0187272299081
7064.28564453	0.0199212580919
7074.52392578	0.021714836359
7084.76171875	0.0244233924896
7095.0	0.0295118894428
7095.25	0.0301405023783
7095.5	0.0303327683359
7095.75	0.0307723507285
7096.0	0.0307867433876
7096.25	0.0309913530946
7096.5	0.0311782825738
7096.75	0.0315311737359
7097.0	0.0315701738
7097.25	0.0319086201489
7097.5	0.0320460796356
7097.75	0.0323203541338
7098.0	0.032499179244
7098.25	0.0326926447451
7098.5	0.0331636108458
7098.75	0.0333031527698
7099.0	0.0334795452654
7099.25	0.0338386520743
7099.5	0.0341335274279
7099.75	0.0342878103256
7100.0	0.034598339349
7100.25	0.0350184179842
7100.5	0.035432677716
7100.75	0.0355682745576
7101.0	0.0359427891672
7101.25	0.0364390276372
7101.5	0.0365318283439
7101.75	0.0370472334325
7102.0	0.0373615175486
7102.25	0.0378933735192
7102.5	0.0382598750293
7102.75	0.0386427231133
7103.0	0.0392306409776
7103.25	0.0394802987576
7103.5	0.0400754474103
7103.75	0.0405277833343
7104.0	0.0410030297935
7104.25	0.0415408685803
7104.5	0.0419861041009
7104.75	0.0427344590425
7105.0	0.0432631894946
7105.25	0.0438389889896
7105.5	0.0443453006446
7105.75	0.0451614297926
7106.0	0.045799497515
7106.25	0.0465980023146
7106.5	0.0475427657366
7106.75	0.0482225418091
7107.0	0.0493277348578
7107.25	0.0501445420086
7107.5	0.0512429475784
7107.75	0.0523491427302
7108.0	0.0536938048899
7108.25	0.0550628341734
7108.5	0.0567185170949
7108.75	0.0585421584547
7109.0	0.0610019080341
7109.25	0.0637374818325
7109.5	0.0672579184175
7109.75	0.0714736804366
7110.0	0.0763952955604
7110.25	0.0817256271839
7110.5	0.0865562111139
7110.75	0.0910057425499
7111.0	0.0943457856774
7111.25	0.0968330651522
7111.5	0.0986149162054
7111.75	0.100455164909
7112.0	0.102431617677
7112.25	0.104760937393
7112.5	0.106870673597
7112.75	0.109046265483
7113.0	0.110480427742
7113.25	0.112087607384
7113.5	0.113103628159
7113.75	0.114501900971
7114.0	0.115845322609
7114.25	0.118410468102
7114.5	0.120865575969
7114.75	0.124723531306
7115.0	0.129501894116
7115.25	0.13647903502
7115.5	0.143703192472
7115.75	0.154151767492
7116.0	0.166212230921
7116.25	0.182096153498
7116.5	0.198996335268
7116.75	0.222035482526
7117.0	0.247905254364
7117.25	0.279268085957
7117.5	0.31442719698
7117.75	0.358616650105
7118.0	0.405777603388
7118.25	0.460308253765
7118.5	0.518016755581
7118.75	0.585433423519
7119.0	0.658054590225
7119.25	0.732365429401
7119.5	0.811284601688
7119.75	0.894377112389
7120.0	0.980917394161
7120.25	1.0622420311
7120.5	1.1423971653
7120.75	1.21970152855
7121.0	1.29343628883
7121.25	1.35620093346
7121.5	1.42119312286
7121.75	1.48361706734
7122.0	1.54915368557
7122.25	1.60838890076
7122.5	1.67760682106
7122.75	1.74496543407
7123.0	1.81826066971
7123.25	1.88423383236
7123.5	1.9588944912
7123.75	2.02618455887
7124.0	2.09442901611
7124.25	2.14982867241
7124.5	2.20646071434
7124.75	2.25482225418
7125.0	2.29871535301
7125.25	2.32854533195
7125.5	2.35351133347
7125.75	2.36572480202
7126.0	2.36671662331
7126.25	2.35711622238
7126.5	2.33662843704
7126.75	2.31042671204
7127.0	2.27951145172
7127.25	2.24970078468
7127.5	2.21384525299
7127.75	2.18468332291
7128.0	2.15616774559
7128.25	2.13496255875
7128.5	2.11483407021
7128.75	2.09879755974
7129.0	2.08722567558
7129.25	2.07678508759
7129.5	2.06752753258
7129.75	2.05654883385
7130.0	2.0463950634
7130.25	2.03643608093
7130.5	2.02253389359
7130.75	2.00730991364
7131.0	1.99092459679
7131.25	1.97415709496
7131.5	1.95658433437
7131.75	1.93750965595
7132.0	1.91864097118
7132.25	1.90026545525
7132.5	1.88383388519
7132.75	1.86651337147
7133.0	1.85160887241
7133.25	1.8399566412
7133.5	1.8292580843
7133.75	1.8195271492
7134.0	1.81277096272
7134.25	1.80827701092
7134.5	1.80475759506
7134.75	1.80368673801
7135.0	1.80308294296
7135.25	1.80332100391
7135.5	1.80384147167
7135.75	1.80426609516
7136.0	1.80514287949
7136.25	1.80621409416
7136.5	1.80585336685
7136.75	1.80573832989
7137.0	1.80468380451
7137.25	1.8026317358
7137.5	1.79926133156
7137.75	1.79524326324
7138.0	1.79174864292
7138.25	1.78660142422
7138.5	1.78241097927
7138.75	1.77732205391
7139.0	1.77300405502
7139.25	1.76878523827
7139.5	1.76480960846
7139.75	1.76064574718
7140.0	1.75630009174
7140.25	1.7532081604
7140.5	1.74943566322
7140.75	1.74537980556
7141.0	1.74140048027
7141.25	1.73510098457
7141.5	1.72977924347
7141.75	1.72423565388
7142.0	1.71668326855
7142.25	1.70820641518
7142.5	1.70103192329
7142.75	1.69243574142
7143.0	1.68267309666
7143.25	1.67313635349
7143.5	1.66284823418
7143.75	1.65313220024
7144.0	1.64263701439
7144.25	1.63170802593
7144.5	1.61987876892
7144.75	1.60902404785
7145.0	1.59768545628
7145.25	1.58575284481
7145.5	1.57417607307
7145.75	1.56286394596
7146.0	1.55246829987
7146.25	1.54192328453
7146.5	1.5313642025
7146.75	1.52182424068
7147.0	1.51098608971
7147.25	1.50290095806
7147.5	1.49318706989
7147.75	1.48523485661
7148.0	1.47674000263
7148.25	1.46858370304
7148.5	1.46063089371
7148.75	1.45470094681
7149.0	1.44777965546
7149.25	1.441411376
7149.5	1.43582487106
7149.75	1.43061125278
7150.0	1.42615926266
7150.25	1.42128288746
7150.5	1.41724538803
7150.75	1.41429281235
7151.0	1.41172432899
7151.25	1.40951097012
7151.5	1.40884423256
7151.75	1.40832650661
7152.0	1.40877556801
7152.25	1.409096241
7152.5	1.40964198112
7152.75	1.41110956669
7153.0	1.41410958767
7153.25	1.41709518433
7153.5	1.4204852581
7153.75	1.42452430725
7154.0	1.4290882349
7154.25	1.43332731724
7154.5	1.4381633997
7154.75	1.44315910339
7155.0	1.44983768463
7155.25	1.45570015907
7155.5	1.46180593967
7155.75	1.46732997894
7156.0	1.47425210476
7156.25	1.48086905479
7156.5	1.48784470558
7156.75	1.4922785759
7157.0	1.49981665611
7157.25	1.50602972507
7157.5	1.51364815235
7157.75	1.52024185658
7158.0	1.526086092
7158.25	1.53232097626
7158.5	1.54017746449
7158.75	1.54681432247
7159.0	1.55406785011
7159.25	1.56054532528
7159.5	1.56792020798
7159.75	1.57441008091
7160.0	1.58226072788
7161.09472656	1.61033582687
7162.20947266	1.63926100731
7163.34326172	1.66688406467
7164.49707031	1.69022703171
7165.67041016	1.71327865124
7166.86376953	1.73363602161
7168.07617188	1.75171947479
7169.30859375	1.77063655853
7170.56005859	1.791041255
7171.83154297	1.80623281002
7173.12304688	1.81423425674
7174.43359375	1.81629168987
7175.76367188	1.81158208847
7177.11376953	1.80400109291
7178.48339844	1.79546833038
7179.87255859	1.78818905354
7181.28173828	1.78383803368
7182.70996094	1.78158056736
7184.15820313	1.77933967113
7185.62597656	1.77546215057
7187.11328125	1.77172350883
7188.62011719	1.76480865479
7190.14648438	1.75737476349
7191.69287109	1.7495508194
7193.25878906	1.73798120022
7194.84423828	1.72663640976
7196.44921875	1.7146371603
7198.07373047	1.70423209667
7199.71826172	1.69463026524
7201.38183594	1.68711769581
7203.06542969	1.68248355389
7204.76855469	1.67942881584
7206.49169922	1.67890584469
7208.23388672	1.6790355444
7209.99609375	1.68090951443
7211.77783203	1.68499529362
7213.57910156	1.69068968296
7215.39990234	1.69842600822
7217.24023438	1.70689332485
7219.10058594	1.71564900875
7220.98046875	1.72500872612
7222.87988281	1.73270773888
7224.79882813	1.73894047737
7226.73730469	1.74303865433
7228.69580078	1.74687075615
7230.67333984	1.74748456478
7232.67089844	1.7479442358
7234.68798828	1.74855422974
7236.72509766	1.74833166599
7238.78125	1.74943339825
7240.85742188	1.75131261349
7242.953125	1.75501835346
7245.06835938	1.76210772991
7247.203125	1.7714703083
7249.35742188	1.78236293793
7251.53173828	1.79095458984
7253.72558594	1.79721879959
7255.93896484	1.80598580837
7258.171875	1.8018643856
7260.42431641	1.80374217033
7262.69677734	1.80195236206
7264.98828125	1.80172300339
7267.29980469	1.79965615273
7269.63085938	1.79677915573
7271.98193359	1.79365503788
7274.35205078	1.7904176712
7276.7421875	1.78901767731
7279.15185547	1.78668153286
7281.58105469	1.78671133518
7284.02978516	1.7858915329
7286.49804688	1.78466022015
7288.98632813	1.78347194195
7291.49414063	1.78227114677
7294.02148438	1.78150248528
7296.56835938	1.78148972988
7299.13476563	1.78206813335
7301.72119141	1.7826898098
7304.32666016	1.78541576862
7306.95214844	1.78820872307
7309.59716797	1.7909219265
7312.26220703	1.7940737009
7314.94628906	1.79761970043
7317.65039063	1.80091965199
7320.37353516	1.80531585217
7323.11669922	1.80964720249
7325.87988281	1.81482470036
7328.66210938	1.8186314106
7331.46435547	1.82252812386
7334.28564453	1.82515275478
7337.12695313	1.82820880413
7339.98828125	1.82929241657
7342.86865234	1.83047676086
7345.76855469	1.83013439178
7348.68847656	1.82982134819
7351.62792969	1.83035171032
7354.58691406	1.83097934723
7357.56542969	1.83222973347
7360.56396484	1.83399140835
7363.58154297	1.83604681492
7366.61914063	1.83791422844
7369.67626953	1.83971846104
7372.75292969	1.84103608131
7375.84960938	1.84207499027
7378.96533203	1.84357607365
7382.10107422	1.84446334839
7385.25634766	1.84620904922
7388.43115234	1.84711158276
7391.62597656	1.84851109982
7394.83984375	1.85049593449
7398.07373047	1.85193538666
7401.32714844	1.85440170765
7404.60009766	1.85554945469
7407.89257813	1.85712409019
7411.20458984	1.85840654373
7414.53662109	1.86032283306
7417.88818359	1.86189222336
7421.25927734	1.86383354664
7424.64990234	1.86610424519
7428.06005859	1.86862826347
7431.49023438	1.87207043171
7434.93994141	1.87454974651
7438.40917969	1.87714648247
7441.89794922	1.87967717648
7445.40625	1.88158237934
7448.93457031	1.88417613506
7452.48193359	1.88639736176
7456.04931641	1.88875603676
7459.63623047	1.89169597626
7463.24316406	1.89443445206
7466.86914063	1.89731550217
7470.51513672	1.90066075325
7474.18017578	1.90397799015
7477.86523438	1.90648555756
7481.5703125	1.90927290916
7485.29443359	1.91036868095
7489.03857422	1.91221237183
7492.80175781	1.91396903992
7496.58496094	1.91572141647
7500.38769531	1.91725504398
7504.21044922	1.91913044453
7508.05224609	1.92086303234
7511.9140625	1.92352199554
7515.79541016	1.92614734173
7519.69628906	1.92834210396
7523.61669922	1.93100142479
7527.55712891	1.93351018429
7531.51660156	1.93700730801
7535.49609375	1.93958389759
7539.49511719	1.94208645821
7543.51367188	1.94494152069
7547.55175781	1.94750595093
7551.60986328	1.95043814182
7555.6875	1.95364451408
7559.78466797	1.95666015148
7563.90136719	1.95918345451
7568.03759766	1.96269834042
7572.19384766	1.96552014351
7576.36914063	1.9682059288
7580.56445313	1.97104477882
7584.77929688	1.97392165661
7589.01367188	1.97701609135
7593.26806641	1.97942793369
7597.54199219	1.98223626614
7601.83496094	1.98519468307
7606.14794922	1.98835062981
7610.48046875	1.99104166031
7614.83300781	1.99421930313
7619.20458984	1.99788141251
7623.59619141	2.00159430504
7628.00732422	2.00217199326
7632.43798828	2.00073409081
7636.88818359	2.00942659378
7641.35839844	2.01343894005
7645.84814453	2.0164706707
7650.35742188	2.01907205582
7654.88623047	2.02260184288
7659.43457031	2.02589249611
7664.00244141	2.02879738808
7668.59033203	2.03133201599
7673.19775391	2.03480386734
7677.82470703	2.03793263435
7682.47119141	2.04173564911
7687.13720703	2.04513764381
7691.82324219	2.048381567
7696.52832031	2.05145072937
7701.25341797	2.0549428463
7705.99804688	2.05836510658
7710.76269531	2.06148695946
7715.54638672	2.065315485
7720.35009766	2.06872868538
7725.17333984	2.07250213623
7730.01611328	2.07584404945
7734.87841797	2.07946872711
7739.76025391	2.08326649666
7744.66210938	2.08597445488
7749.58349609	2.0897436142
7754.52441406	2.09342074394
7759.48486328	2.09713244438
7764.46484375	2.10031747818
7769.46484375	2.10439729691
7774.484375	2.10780239105
7779.5234375	2.11184883118
7784.58203125	2.11513829231
7789.66015625	2.11866879463
7794.7578125	2.1220843792
7799.87548828	2.12594175339
7805.01269531	2.12994194031
7810.16943359	2.13359618187
7815.34570313	2.13703942299
7820.54199219	2.14124441147
7825.75732422	2.14498090744
7830.99267578	2.14880990982
7836.24755859	2.15241527557
7841.52197266	2.15689492226
7846.81591797	2.16107320786
7852.12988281	2.16468453407
7857.46337891	2.16809225082
7862.81640625	2.17215490341
7868.18896484	2.17629957199
7873.58105469	2.18016934395
7878.99267578	2.1846036911
7884.42431641	2.18828034401
7889.87548828	2.19235134125
7895.34619141	2.19671416283
7900.83642578	2.20109295845
7906.34667969	2.20509552956
7911.87597656	2.20939683914
7917.42529297	2.21392536163
7922.99414063	2.21778345108
7928.58251953	2.22222661972
7934.19042969	2.22664833069
7939.81835938	2.23160386086
7945.46582031	2.23583626747
7951.1328125	2.24051046371
7956.81933594	2.24491381645
7962.52539063	2.24908947945
7968.25097656	2.25342273712
7973.99658203	2.25794577599
7979.76171875	2.26252174377
7985.54638672	2.2664270401
7991.35058594	2.27113485336
7997.17480469	2.27478146553
8003.01806641	2.27935147285
8008.88134766	2.28357410431
8014.76416016	2.28777694702
8020.66650391	2.29227757454
8026.58837891	2.29710054398
8032.53027344	2.30162405968
8038.49169922	2.30618405342
8044.47216797	2.31061339378
8050.47314453	2.31506609917
8056.49316406	2.31928062439
8062.53271484	2.32395529747
8068.59228516	2.3281815052
8074.67138672	2.33235812187
8080.77001953	2.33710503578
8086.88818359	2.34170269966
8093.02587891	2.3466565609
8099.18359375	2.35060214996
8105.36083984	2.35524964333
