#saved Fri Feb 13 17:52:20 2026
#saving x array=energy, y array=norm
#Ferrosmectite: Ferrosmectite
#------------------------------------------
# energy, Ferrosmectite
 6880.00000,  4.08772e-4
 6890.23828,  1.93933e-4
 6900.47607,  9.48923e-5
 6910.71436,  1.32002e-4
 6920.95215, -1.03535e-4
 6931.19043,  1.08555e-4
 6941.42871, -5.91035e-7
 6951.66650,  4.72595e-5
 6961.90479, -5.01552e-5
 6972.14307, -3.16628e-5
 6982.38086,  2.77067e-5
 6992.61914,  7.44282e-6
 7002.85693,  7.33019e-5
 7013.09521,  4.29669e-4
 7023.33350,  4.90490e-4
 7033.57129,  7.52081e-4
 7043.80957,  0.00101157
 7054.04785,  0.00172068
 7064.28564,  0.00208913
 7074.52393,  0.00293716
 7084.76172,  0.00449275
 7095.00000,  0.00707039
 7095.25000,  0.00700089
 7095.50000,  0.00711216
 7095.75000,  0.00740056
 7096.00000,  0.00729614
 7096.25000,  0.00748530
 7096.50000,  0.00764235
 7096.75000,  0.00769945
 7097.00000,  0.00778536
 7097.25000,  0.00784055
 7097.50000,  0.00796224
 7097.75000,  0.00805158
 7098.00000,  0.00833938
 7098.25000,  0.00831418
 7098.50000,  0.00849861
 7098.75000,  0.00848635
 7099.00000,  0.00869858
 7099.25000,  0.00883466
 7099.50000,  0.00896219
 7099.75000,  0.00905217
 7100.00000,  0.00937844
 7100.25000,  0.00932918
 7100.50000,  0.00946993
 7100.75000,  0.00960999
 7101.00000,  0.00978338
 7101.25000,  0.01001954
 7101.50000,  0.01012825
 7101.75000,  0.01026116
 7102.00000,  0.01039731
 7102.25000,  0.01059198
 7102.50000,  0.01083942
 7102.75000,  0.01096707
 7103.00000,  0.01112944
 7103.25000,  0.01146663
 7103.50000,  0.01155271
 7103.75000,  0.01187284
 7104.00000,  0.01206840
 7104.25000,  0.01220124
 7104.50000,  0.01249805
 7104.75000,  0.01269623
 7105.00000,  0.01296074
 7105.25000,  0.01324428
 7105.50000,  0.01359506
 7105.75000,  0.01379959
 7106.00000,  0.01397747
 7106.25000,  0.01445692
 7106.50000,  0.01482997
 7106.75000,  0.01504698
 7107.00000,  0.01541111
 7107.25000,  0.01585029
 7107.50000,  0.01621192
 7107.75000,  0.01666982
 7108.00000,  0.01701627
 7108.25000,  0.01758552
 7108.50000,  0.01810230
 7108.75000,  0.01877369
 7109.00000,  0.01938802
 7109.25000,  0.02023740
 7109.50000,  0.02106149
 7109.75000,  0.02219667
 7110.00000,  0.02335542
 7110.25000,  0.02480294
 7110.50000,  0.02640646
 7110.75000,  0.02868756
 7111.00000,  0.03162360
 7111.25000,  0.03479794
 7111.50000,  0.03876279
 7111.75000,  0.04324354
 7112.00000,  0.04808084
 7112.25000,  0.05281523
 7112.50000,  0.05729179
 7112.75000,  0.06153838
 7113.00000,  0.06491054
 7113.25000,  0.06667568
 7113.50000,  0.06768152
 7113.75000,  0.06749854
 7114.00000,  0.06652936
 7114.25000,  0.06486939
 7114.50000,  0.06235512
 7114.75000,  0.06010279
 7115.00000,  0.05739234
 7115.25000,  0.05576479
 7115.50000,  0.05428355
 7115.75000,  0.05382994
 7116.00000,  0.05417520
 7116.25000,  0.05489603
 7116.50000,  0.05639240
 7116.75000,  0.05819611
 7117.00000,  0.06023015
 7117.25000,  0.06263492
 7117.50000,  0.06581633
 7117.75000,  0.06873126
 7118.00000,  0.07269009
 7118.25000,  0.07656481
 7118.50000,  0.08168672
 7118.75000,  0.08708855
 7119.00000,  0.09394307
 7119.25000,  0.10121342
 7119.50000,  0.11071679
 7119.75000,  0.12049754
 7120.00000,  0.13244857
 7120.25000,  0.14587736
 7120.50000,  0.16133412
 7120.75000,  0.17831974
 7121.00000,  0.19788763
 7121.25000,  0.21881223
 7121.50000,  0.24321628
 7121.75000,  0.26910007
 7122.00000,  0.29565346
 7122.25000,  0.32515048
 7122.50000,  0.35700741
 7122.75000,  0.39003965
 7123.00000,  0.42111351
 7123.25000,  0.45467108
 7123.50000,  0.48619422
 7123.75000,  0.51868505
 7124.00000,  0.54765400
 7124.25000,  0.57913785
 7124.50000,  0.60767091
 7124.75000,  0.64010104
 7125.00000,  0.67029467
 7125.25000,  0.70554675
 7125.50000,  0.73910662
 7125.75000,  0.77904935
 7126.00000,  0.81525725
 7126.25000,  0.85829376
 7126.50000,  0.89835486
 7126.75000,  0.94017533
 7127.00000,  0.97510239
 7127.25000,  1.01530506
 7127.50000,  1.04759776
 7127.75000,  1.07951597
 7128.00000,  1.10352180
 7128.25000,  1.12843638
 7128.50000,  1.14727314
 7128.75000,  1.16649678
 7129.00000,  1.18147485
 7129.25000,  1.19810006
 7129.50000,  1.21169156
 7129.75000,  1.22641524
 7130.00000,  1.24004029
 7130.25000,  1.25368371
 7130.50000,  1.26828668
 7130.75000,  1.28118879
 7131.00000,  1.29304099
 7131.25000,  1.30539988
 7131.50000,  1.31464388
 7131.75000,  1.32281550
 7132.00000,  1.32804496
 7132.25000,  1.33093119
 7132.50000,  1.33170772
 7132.75000,  1.32997019
 7133.00000,  1.32589433
 7133.25000,  1.32057996
 7133.50000,  1.31367255
 7133.75000,  1.30521724
 7134.00000,  1.29619833
 7134.25000,  1.28650111
 7134.50000,  1.27566473
 7134.75000,  1.26523919
 7135.00000,  1.25450774
 7135.25000,  1.24378567
 7135.50000,  1.23382288
 7135.75000,  1.22515521
 7136.00000,  1.21577868
 7136.25000,  1.20797052
 7136.50000,  1.20003487
 7136.75000,  1.19350296
 7137.00000,  1.18748302
 7137.25000,  1.18106543
 7137.50000,  1.17573329
 7137.75000,  1.17040035
 7138.00000,  1.16474263
 7138.25000,  1.15989012
 7138.50000,  1.15438516
 7138.75000,  1.14992092
 7139.00000,  1.14453466
 7139.25000,  1.14011276
 7139.50000,  1.13574366
 7139.75000,  1.13132575
 7140.00000,  1.12639397
 7140.25000,  1.12251628
 7140.50000,  1.11821458
 7140.75000,  1.11412175
 7141.00000,  1.10962167
 7141.25000,  1.10609382
 7141.50000,  1.10219527
 7141.75000,  1.09945975
 7142.00000,  1.09589197
 7142.25000,  1.09319249
 7142.50000,  1.09041145
 7142.75000,  1.08918649
 7143.00000,  1.08631899
 7143.25000,  1.08615962
 7143.50000,  1.08484232
 7143.75000,  1.08402660
 7144.00000,  1.08361055
 7144.25000,  1.08359296
 7144.50000,  1.08304641
 7144.75000,  1.08321482
 7145.00000,  1.08289850
 7145.25000,  1.08201560
 7145.50000,  1.08083478
 7145.75000,  1.07926708
 7146.00000,  1.07763937
 7146.25000,  1.07555880
 7146.50000,  1.07212061
 7146.75000,  1.06804884
 7147.00000,  1.06401601
 7147.25000,  1.05847979
 7147.50000,  1.05283635
 7147.75000,  1.04691296
 7148.00000,  1.03961768
 7148.25000,  1.03339947
 7148.50000,  1.02625424
 7148.75000,  1.01873372
 7149.00000,  1.01149795
 7149.25000,  1.00443439
 7149.50000,  0.99648706
 7149.75000,  0.98839806
 7150.00000,  0.98157432
 7150.25000,  0.97374190
 7150.50000,  0.96665498
 7150.75000,  0.95968917
 7151.00000,  0.95281761
 7151.25000,  0.94610868
 7151.50000,  0.94021814
 7151.75000,  0.93423315
 7152.00000,  0.92873986
 7152.25000,  0.92311080
 7152.50000,  0.91839687
 7152.75000,  0.91294931
 7153.00000,  0.90858192
 7153.25000,  0.90335720
 7153.50000,  0.89924290
 7153.75000,  0.89485564
 7154.00000,  0.89087083
 7154.25000,  0.88643035
 7154.50000,  0.88293336
 7154.75000,  0.87920024
 7155.00000,  0.87574428
 7155.25000,  0.87212448
 7155.50000,  0.86923870
 7155.75000,  0.86561691
 7156.00000,  0.86260613
 7156.25000,  0.85980212
 7156.50000,  0.85706261
 7156.75000,  0.85450959
 7157.00000,  0.85194140
 7157.25000,  0.84950001
 7157.50000,  0.84740296
 7157.75000,  0.84504503
 7158.00000,  0.84376207
 7158.25000,  0.84166602
 7158.50000,  0.84039035
 7158.75000,  0.83864095
 7159.00000,  0.83748189
 7159.25000,  0.83630676
 7159.50000,  0.83571029
 7159.75000,  0.83480572
 7160.00000,  0.83381819
 7161.09473,  0.83385321
 7162.20947,  0.83724780
 7163.34326,  0.84467699
 7164.49707,  0.85604253
 7165.67041,  0.87129510
 7166.86377,  0.88904932
 7168.07617,  0.90893641
 7169.30859,  0.92948970
 7170.56006,  0.95040441
 7171.83154,  0.97135853
 7173.12305,  0.99269003
 7174.43359,  1.01382324
 7175.76367,  1.03068321
 7177.11377,  1.04206968
 7178.48340,  1.05082536
 7179.87256,  1.05771035
 7181.28174,  1.06203304
 7182.70996,  1.06406601
 7184.15820,  1.06372528
 7185.62598,  1.06317567
 7187.11328,  1.06213495
 7188.62012,  1.06193555
 7190.14648,  1.06103627
 7191.69287,  1.06095955
 7193.25879,  1.06076241
 7194.84424,  1.06052113
 7196.44922,  1.05937099
 7198.07373,  1.05717842
 7199.71826,  1.05329296
 7201.38184,  1.04821951
 7203.06543,  1.04285071
 7204.76855,  1.03685271
 7206.49170,  1.03076613
 7208.23389,  1.02448087
 7209.99609,  1.01806240
 7211.77783,  1.01274944
 7213.57910,  1.00883901
 7215.39990,  1.00603689
 7217.24023,  1.00534495
 7219.10059,  1.00676231
 7220.98047,  1.00924513
 7222.87988,  1.01178335
 7224.79883,  1.01385142
 7226.73730,  1.01450146
 7228.69580,  1.01409498
 7230.67334,  1.01297044
 7232.67090,  1.01184769
 7234.68799,  1.01016552
 7236.72510,  1.00855183
 7238.78125,  1.00850620
 7240.85742,  1.00945695
 7242.95312,  1.01143843
 7245.06836,  1.01497710
 7247.20312,  1.01985998
 7249.35742,  1.02574055
 7251.53174,  1.03297402
 7253.72559,  1.04059176
 7255.93896,  1.04842454
 7258.17188,  1.05563950
 7260.42432,  1.06194122
 7262.69678,  1.06739918
 7264.98828,  1.07137033
 7267.29980,  1.07450620
 7269.63086,  1.07633556
 7271.98193,  1.07835929
 7274.35205,  1.07923127
 7276.74219,  1.08038867
 7279.15186,  1.08029027
 7281.58105,  1.08034093
 7284.02979,  1.07932958
 7286.49805,  1.07750743
 7288.98633,  1.07507943
 7291.49414,  1.07150037
 7294.02148,  1.06838435
 7296.56836,  1.06423498
 7299.13477,  1.06073965
 7301.72119,  1.05814275
 7304.32666,  1.05629924
 7306.95215,  1.05574962
 7309.59717,  1.05646585
 7312.26221,  1.05814582
 7314.94629,  1.06099359
 7317.65039,  1.06414387
 7320.37354,  1.06755521
 7323.11670,  1.07101815
 7325.87988,  1.07433212
 7328.66211,  1.07668462
 7331.46436,  1.07863096
 7334.28564,  1.08012562
 7337.12695,  1.08170503
 7339.98828,  1.08209223
 7342.86865,  1.08326337
 7345.76855,  1.08366074
 7348.68848,  1.08443379
 7351.62793,  1.08519394
 7354.58691,  1.08562451
 7357.56543,  1.08665271
 7360.56396,  1.08781068
 7363.58154,  1.08910632
 7366.61914,  1.09072822
 7369.67627,  1.09284002
 7372.75293,  1.09576470
 7375.84961,  1.09859171
 7378.96533,  1.10229211
 7382.10107,  1.10549610
 7385.25635,  1.10897732
 7388.43115,  1.11159093
 7391.62598,  1.11396191
 7394.83984,  1.11616245
 7398.07373,  1.11746772
 7401.32715,  1.11813541
 7404.60010,  1.11823869
 7407.89258,  1.11768291
 7411.20459,  1.11715079
 7414.53662,  1.11588962
 7417.88818,  1.11527729
 7421.25928,  1.11487112
 7424.64990,  1.11476386
 7428.06006,  1.11507741
 7431.49023,  1.11568386
 7434.93994,  1.11689753
 7438.40918,  1.11831825
 7441.89795,  1.12034109
 7445.40625,  1.12207108
 7448.93457,  1.12452919
 7452.48193,  1.12685630
 7456.04932,  1.12945605
 7459.63623,  1.13170296
 7463.24316,  1.13486897
 7466.86914,  1.13778128
 7470.51514,  1.14062109
 7474.18018,  1.14358889
 7477.86523,  1.14626744
 7481.57031,  1.14838197
 7485.29443,  1.15016353
 7489.03857,  1.15206179
 7492.80176,  1.15349958
 7496.58496,  1.15472290
 7500.38770,  1.15568932
 7504.21045,  1.15689613
 7508.05225,  1.15756061
 7511.91406,  1.15898904
 7515.79541,  1.16061364
 7519.69629,  1.16231311
 7523.61670,  1.16461260
 7527.55713,  1.16673696
 7531.51660,  1.16919527
 7535.49609,  1.17155851
 7539.49512,  1.17357260
 7543.51367,  1.17556712
 7547.55176,  1.17808427
 7551.60986,  1.18016751
 7555.68750,  1.18215689
 7559.78467,  1.18385353
 7563.90137,  1.18558489
 7568.03760,  1.18738873
 7572.19385,  1.18910998
 7576.36914,  1.19083772
 7580.56445,  1.19278947
 7584.77930,  1.19451608
 7589.01367,  1.19608163
 7593.26807,  1.19818460
 7597.54199,  1.20005413
 7601.83496,  1.20215238
 7606.14795,  1.20419192
 7610.48047,  1.20667303
 7614.83301,  1.20886179
 7619.20459,  1.21190257
 7623.59619,  1.21475674
 7628.00732,  1.21775446
 7632.43799,  1.22054859
 7636.88818,  1.22327552
 7641.35840,  1.22620851
 7645.84814,  1.22915136
 7650.35742,  1.23202221
 7654.88623,  1.23452894
 7659.43457,  1.23726679
 7664.00244,  1.24044351
 7668.59033,  1.24123396
 7673.19775,  1.24301810
 7677.82471,  1.24570716
 7682.47119,  1.24866219
 7687.13721,  1.25012660
 7691.82324,  1.25263761
 7696.52832,  1.25494195
 7701.25342,  1.25734101
 7705.99805,  1.25971291
 7710.76270,  1.26225321
 7715.54639,  1.26510341
 7720.35010,  1.26814309
 7725.17334,  1.26995323
 7730.01611,  1.27311249
 7734.87842,  1.27506478
 7739.76025,  1.27806777
 7744.66211,  1.28134779
 7749.58350,  1.28403555
 7754.52441,  1.28709480
 7759.48486,  1.28975757
 7764.46484,  1.29260634
 7769.46484,  1.29533228
 7774.48438,  1.29837860
 7779.52344,  1.30108145
 7784.58203,  1.30393875
 7789.66016,  1.30647874
 7794.75781,  1.30960158
 7799.87549,  1.31277801
 7805.01270,  1.31579969
 7810.16943,  1.31871212
 7815.34570,  1.32160068
 7820.54199,  1.32491684
 7825.75732,  1.32791610
 7830.99268,  1.33088698
 7836.24756,  1.33388990
 7841.52197,  1.33729956
 7846.81592,  1.34050113
 7852.12988,  1.34363300
 7857.46338,  1.34712009
 7862.81641,  1.35020790
 7868.18896,  1.35342510
 7873.58105,  1.35672974
 7878.99268,  1.35977159
 7884.42432,  1.36287393
 7889.87549,  1.36586013
 7895.34619,  1.36928383
 7900.83643,  1.37296190
 7906.34668,  1.37598291
 7911.87598,  1.37969190
 7917.42529,  1.38314469
 7922.99414,  1.38685545
 7928.58252,  1.38999163
 7934.19043,  1.39318739
 7939.81836,  1.39671001
 7945.46582,  1.40022593
 7951.13281,  1.40373754
 7956.81934,  1.40736356
 7962.52539,  1.41119963
 7968.25098,  1.41507531
 7973.99658,  1.41868202
 7979.76172,  1.42253252
 7985.54639,  1.42628526
 7991.35059,  1.42986597
 7997.17480,  1.43385909
 8003.01807,  1.43748320
 8008.88135,  1.44140891
 8014.76416,  1.44517107
 8020.66650,  1.44892982
 8026.58838,  1.45264742
 8032.53027,  1.45601847
 8038.49170,  1.45975082
 8044.47217,  1.46361315
 8050.47314,  1.46716017
 8056.49316,  1.47070069
 8062.53271,  1.47428483
 8068.59229,  1.47814460
 8074.67139,  1.48193228
 8080.77002,  1.48558626
 8086.88818,  1.48940087
 8093.02588,  1.49299553
 8099.18359,  1.49709824
 8105.36084,  1.50074188
