#saved Fri Feb 13 17:52:20 2026
#saving x array=energy, y array=norm
#FeS: FeS
#------------------------------------------
# energy, FeS
 6880.00000, -1.05178e-4
 6890.23828, -0.00172398
 6900.47607, -0.00173861
 6910.71436, -5.17178e-4
 6920.95215,  0.00126854
 6931.19043,  4.57298e-4
 6941.42871,  9.60197e-4
 6951.66650, -5.21978e-5
 6961.90479, -0.00105580
 6972.14307, -0.00150179
 6982.38086, -0.00145412
 6992.61914, -5.76833e-4
 7002.85693,  4.90474e-4
 7013.09521,  0.00198141
 7023.33350,  0.00311053
 7033.57129,  0.00362813
 7043.80957,  0.00467351
 7054.04785,  0.00553371
 7064.28564,  0.00772376
 7074.52393,  0.00887600
 7084.76172,  0.01396622
 7095.00000,  0.01853981
 7095.14990,  0.01900329
 7095.30029,  0.01848616
 7095.45020,  0.01900933
 7095.60059,  0.01866537
 7095.75049,  0.01943260
 7095.90088,  0.02035057
 7096.05078,  0.02069772
 7096.20068,  0.01858438
 7096.35107,  0.01927877
 7096.50098,  0.02057681
 7096.65137,  0.01974288
 7096.80127,  0.01986791
 7096.95166,  0.02083135
 7097.10156,  0.02049919
 7097.25195,  0.02060009
 7097.40186,  0.01966572
 7097.55176,  0.02066124
 7097.70215,  0.02133787
 7097.85205,  0.02134472
 7098.00244,  0.02180549
 7098.15234,  0.02173289
 7098.30273,  0.02169506
 7098.45264,  0.02261266
 7098.60254,  0.02179724
 7098.75293,  0.02142209
 7098.90283,  0.02176402
 7099.05322,  0.02204776
 7099.20312,  0.02182126
 7099.35352,  0.02356154
 7099.50342,  0.02268313
 7099.65381,  0.02309806
 7099.80371,  0.02386343
 7099.95361,  0.02371269
 7100.10400,  0.02428092
 7100.25391,  0.02407039
 7100.40430,  0.02374878
 7100.55420,  0.02518763
 7100.70459,  0.02480022
 7100.85449,  0.02526248
 7101.00439,  0.02525005
 7101.15479,  0.02482379
 7101.30469,  0.02543848
 7101.45508,  0.02627975
 7101.60498,  0.02631934
 7101.75537,  0.02677537
 7101.90527,  0.02654160
 7102.05566,  0.02729761
 7102.20557,  0.02728510
 7102.35547,  0.02621670
 7102.50586,  0.02783409
 7102.65576,  0.02817285
 7102.80615,  0.02777949
 7102.95605,  0.02841305
 7103.10645,  0.02866034
 7103.25635,  0.02916822
 7103.40625,  0.02846907
 7103.55664,  0.03077526
 7103.70654,  0.02911239
 7103.85693,  0.03098409
 7104.00684,  0.03020559
 7104.15723,  0.03069949
 7104.30713,  0.03200426
 7104.45703,  0.03210802
 7104.60742,  0.03251236
 7104.75732,  0.03251148
 7104.90771,  0.03227986
 7105.05762,  0.03378259
 7105.20801,  0.03478457
 7105.35791,  0.03438887
 7105.50830,  0.03453145
 7105.65820,  0.03641722
 7105.80811,  0.03678641
 7105.95850,  0.03641551
 7106.10840,  0.03695605
 7106.25879,  0.03768287
 7106.40869,  0.03794441
 7106.55908,  0.03932246
 7106.70898,  0.03996163
 7106.85889,  0.04071179
 7107.00928,  0.04147074
 7107.15918,  0.04194274
 7107.30957,  0.04391373
 7107.45947,  0.04281429
 7107.60986,  0.04468396
 7107.75977,  0.04494426
 7107.91016,  0.04645603
 7108.06006,  0.04750897
 7108.20996,  0.04865015
 7108.36035,  0.04921773
 7108.51025,  0.05189708
 7108.66064,  0.05151275
 7108.81055,  0.05478697
 7108.96094,  0.05543955
 7109.11084,  0.05978081
 7109.26074,  0.06225676
 7109.41113,  0.06388195
 7109.56104,  0.06855537
 7109.71143,  0.07328093
 7109.86133,  0.07774613
 7110.01172,  0.08419173
 7110.16162,  0.09059220
 7110.31201,  0.09771968
 7110.46191,  0.10506927
 7110.61182,  0.11280949
 7110.76221,  0.12157967
 7110.91211,  0.12936662
 7111.06250,  0.13690686
 7111.21240,  0.14161593
 7111.36279,  0.14803814
 7111.51270,  0.15348953
 7111.66260,  0.15854845
 7111.81299,  0.16166021
 7111.96289,  0.16540474
 7112.11328,  0.16820735
 7112.26318,  0.17196189
 7112.41357,  0.17493634
 7112.56348,  0.17890996
 7112.71387,  0.18066953
 7112.86377,  0.18348773
 7113.01367,  0.18875726
 7113.16406,  0.19200143
 7113.31396,  0.19620436
 7113.46436,  0.20061433
 7113.61426,  0.20875791
 7113.76465,  0.21379285
 7113.91455,  0.22158341
 7114.06445,  0.23137451
 7114.21484,  0.23955363
 7114.36475,  0.25065003
 7114.51514,  0.26347223
 7114.66504,  0.27636591
 7114.81543,  0.29052735
 7114.96533,  0.30662858
 7115.11523,  0.32127799
 7115.26562,  0.33775387
 7115.41553,  0.35708974
 7115.56592,  0.37762548
 7115.71582,  0.39593938
 7115.86621,  0.41663460
 7116.01611,  0.44004302
 7116.16650,  0.45809919
 7116.31641,  0.47736569
 7116.46631,  0.50183007
 7116.61670,  0.52477254
 7116.76660,  0.54426395
 7116.91699,  0.56623034
 7117.06689,  0.58714176
 7117.21729,  0.60575521
 7117.36719,  0.62574236
 7117.51709,  0.64779112
 7117.66748,  0.66552297
 7117.81738,  0.68338019
 7117.96777,  0.70375599
 7118.11768,  0.71920480
 7118.26807,  0.73595295
 7118.41797,  0.75158115
 7118.56836,  0.76532615
 7118.71826,  0.78011576
 7118.86816,  0.79211530
 7119.01855,  0.80420549
 7119.16846,  0.81284612
 7119.31885,  0.82469573
 7119.46875,  0.83210127
 7119.61914,  0.83970988
 7119.76904,  0.84674935
 7119.91895,  0.85405699
 7120.06934,  0.85867024
 7120.21924,  0.86400536
 7120.36963,  0.86966769
 7120.51953,  0.87340576
 7120.66992,  0.87645205
 7120.81982,  0.87724473
 7120.97021,  0.88023285
 7121.12012,  0.88172698
 7121.27002,  0.88624707
 7121.42041,  0.88861797
 7121.57031,  0.89094668
 7121.72070,  0.89604201
 7121.87061,  0.89775996
 7122.02100,  0.89862066
 7122.17090,  0.90398277
 7122.32080,  0.90685937
 7122.47119,  0.91183147
 7122.62109,  0.91443731
 7122.77148,  0.91828162
 7122.92139,  0.92226120
 7123.07178,  0.92618640
 7123.22168,  0.92905092
 7123.37158,  0.93443391
 7123.52197,  0.93877498
 7123.67188,  0.94174236
 7123.82227,  0.94736210
 7123.97217,  0.95098424
 7124.12256,  0.95833131
 7124.27246,  0.96084393
 7124.42285,  0.96351535
 7124.57275,  0.96898032
 7124.72266,  0.97247547
 7124.87305,  0.97591498
 7125.02295,  0.97651646
 7125.17334,  0.98199999
 7125.32324,  0.98654463
 7125.47363,  0.98953711
 7125.62354,  0.99367302
 7125.77344,  0.99663654
 7125.92383,  0.99753345
 7126.07373,  1.00135979
 7126.22412,  1.00491968
 7126.37402,  1.00902985
 7126.52441,  1.01025259
 7126.67432,  1.01308283
 7126.82471,  1.01549422
 7126.97461,  1.01793157
 7127.12451,  1.02004384
 7127.27490,  1.02448574
 7127.42480,  1.02783118
 7127.57520,  1.03173299
 7127.72510,  1.03270012
 7127.87549,  1.03614089
 7128.02539,  1.04089066
 7128.17529,  1.04086427
 7128.32568,  1.04613053
 7128.47559,  1.04711953
 7128.62598,  1.05093777
 7128.77588,  1.05204195
 7128.92627,  1.05390311
 7129.07617,  1.05493880
 7129.22656,  1.05723660
 7129.37646,  1.05652972
 7129.52637,  1.06214851
 7129.67676,  1.06088137
 7129.82666,  1.06198588
 7129.97705,  1.06274716
 7130.12695,  1.06367773
 7130.27734,  1.06350888
 7130.42725,  1.06329657
 7130.57715,  1.06140916
 7130.72754,  1.06274792
 7130.87744,  1.06220030
 7131.02783,  1.06478588
 7131.17773,  1.06301860
 7131.32812,  1.06251377
 7131.47803,  1.06252528
 7131.62842,  1.06317800
 7131.77832,  1.06226851
 7131.92822,  1.06272857
 7132.07861,  1.06403136
 7132.22852,  1.06126177
 7132.37891,  1.06398499
 7132.52881,  1.06349145
 7132.67920,  1.06327397
 7132.82910,  1.06044604
 7132.97900,  1.06171779
 7133.12939,  1.06042541
 7133.27930,  1.06008770
 7133.42969,  1.06041199
 7133.57959,  1.05954609
 7133.72998,  1.05958571
 7133.87988,  1.06189958
 7134.02979,  1.05937107
 7134.18018,  1.05972948
 7134.33008,  1.05614334
 7134.48047,  1.05670201
 7134.63037,  1.05759310
 7134.78076,  1.05670058
 7134.93066,  1.05746878
 7135.08105,  1.05763657
 7135.23096,  1.05720422
 7135.38086,  1.05731606
 7135.53125,  1.05755066
 7135.68115,  1.05487320
 7135.83154,  1.05884325
 7135.98145,  1.05614742
 7136.13184,  1.05472227
 7136.28174,  1.05698869
 7136.43164,  1.05672944
 7136.58203,  1.05649277
 7136.73193,  1.05425908
 7136.88232,  1.05704040
 7137.03223,  1.05412319
 7137.18262,  1.05321423
 7137.33252,  1.05387070
 7137.48291,  1.05162069
 7137.63281,  1.05335750
 7137.78271,  1.05000382
 7137.93311,  1.05123879
 7138.08301,  1.04977178
 7138.23340,  1.04989925
 7138.38330,  1.05069100
 7138.53369,  1.04911932
 7138.68359,  1.04614612
 7138.83350,  1.04653844
 7138.98389,  1.04627176
 7139.13379,  1.04583094
 7139.28418,  1.04359796
 7139.43408,  1.04311455
 7139.58447,  1.04289549
 7139.73438,  1.04189563
 7139.88477,  1.04055682
 7140.03467,  1.03918268
 7140.18457,  1.04048703
 7140.33496,  1.03757539
 7140.48486,  1.03813369
 7140.63525,  1.03711635
 7140.78516,  1.03745033
 7140.93555,  1.03805880
 7141.08545,  1.03638112
 7141.23535,  1.03637486
 7141.38574,  1.03556255
 7141.53564,  1.03314227
 7141.68604,  1.03421739
 7141.83594,  1.03271089
 7141.98633,  1.03429810
 7142.13623,  1.03037037
 7142.28613,  1.03099716
 7142.43652,  1.03102941
 7142.58643,  1.02858322
 7142.73682,  1.03017135
 7142.88672,  1.02783397
 7143.03711,  1.03013438
 7143.18701,  1.02694264
 7143.33740,  1.02670337
 7143.48730,  1.02412625
 7143.63721,  1.02418360
 7143.78760,  1.02639809
 7143.93750,  1.02428720
 7144.08789,  1.02310489
 7144.23779,  1.02005809
 7144.38818,  1.02434283
 7144.53809,  1.02097204
 7144.68799,  1.02187763
 7144.83838,  1.02107949
 7144.98828,  1.01971374
 7145.13867,  1.01866035
 7145.28857,  1.02078988
 7145.43896,  1.01871717
 7145.58887,  1.01976519
 7145.73926,  1.01764746
 7145.88916,  1.01810517
 7146.03906,  1.01862022
 7146.18945,  1.01432377
 7146.33936,  1.01594507
 7146.48975,  1.01271414
 7146.63965,  1.01366986
 7146.79004,  1.01612107
 7146.93994,  1.01212443
 7147.08984,  1.01021842
 7147.24023,  1.01172206
 7147.39014,  1.00929800
 7147.54053,  1.00982314
 7147.69043,  1.00863468
 7147.84082,  1.00716803
 7147.99072,  1.00505236
 7148.14111,  1.00537230
 7148.29102,  1.00459617
 7148.44092,  1.00264883
 7148.59131,  1.00214585
 7148.74121,  1.00231151
 7148.89160,  0.99813150
 7149.04150,  0.99874026
 7149.19189,  0.99875566
 7149.34180,  0.99758706
 7149.49170,  0.99588633
 7149.64209,  0.99314394
 7149.79199,  0.99208448
 7149.94238,  0.99490687
 7150.09229,  0.99144396
 7150.24268,  0.98951216
 7150.39258,  0.98950950
 7150.54297,  0.98737979
 7150.69287,  0.98875388
 7150.84277,  0.98508584
 7150.99316,  0.98554803
 7151.14307,  0.98366322
 7151.29346,  0.98277229
 7151.44336,  0.97986514
 7151.59375,  0.97735972
 7151.74365,  0.97893576
 7151.89355,  0.97754469
 7152.04395,  0.97664160
 7152.19385,  0.97445904
 7152.34424,  0.97519324
 7152.49414,  0.97504431
 7152.64453,  0.97232387
 7152.79443,  0.97086457
 7152.94434,  0.96845275
 7153.09473,  0.97080605
 7153.24463,  0.96769545
 7153.39502,  0.96957983
 7153.54492,  0.96658668
 7153.69531,  0.96779911
 7153.84521,  0.96490587
 7153.99561,  0.96512974
 7154.14551,  0.96363724
 7154.29541,  0.96190869
 7154.44580,  0.96364998
 7154.59570,  0.96394490
 7154.74609,  0.96251572
 7154.89600,  0.96122616
 7155.04639,  0.95988558
 7155.19629,  0.96090501
 7155.34619,  0.96079899
 7155.49658,  0.95950620
 7155.64648,  0.95916823
 7155.79688,  0.95875519
 7155.94678,  0.95995887
 7156.09717,  0.95965656
 7156.24707,  0.96028008
 7156.39746,  0.96020268
 7156.54736,  0.95994259
 7156.69727,  0.96146112
 7156.84766,  0.96091186
 7156.99756,  0.96242544
 7157.14795,  0.96124397
 7157.29785,  0.96059409
 7157.44824,  0.96283003
 7157.59814,  0.96071772
 7157.74805,  0.96082789
 7157.89844,  0.96203328
 7158.04834,  0.96126579
 7158.19873,  0.96132075
 7158.34863,  0.96355540
 7158.49902,  0.96345637
 7158.64893,  0.96470473
 7158.79932,  0.96398137
 7158.94922,  0.96404501
 7159.09912,  0.96353286
 7159.24951,  0.96615306
 7159.39941,  0.96626624
 7159.54980,  0.96794609
 7159.69971,  0.96625727
 7159.85010,  0.96822421
 7160.00000,  0.96922000
 7161.09082,  0.97574620
 7162.20068,  0.98386826
 7163.33057,  0.98945429
 7164.47949,  0.99971906
 7165.64795,  1.00735975
 7166.83594,  1.01957291
 7168.04346,  1.03063256
 7169.27051,  1.04286629
 7170.51660,  1.05342190
 7171.78271,  1.06303752
 7173.06787,  1.07288650
 7174.37305,  1.07735147
 7175.69727,  1.08290130
 7177.04102,  1.08769479
 7178.40430,  1.09020654
 7179.78711,  1.09006002
 7181.18896,  1.08969931
 7182.61084,  1.08422074
 7184.05176,  1.08363926
 7185.51270,  1.08197170
 7186.99268,  1.07804518
 7188.49219,  1.07770316
 7190.01123,  1.07737046
 7191.54980,  1.06336734
 7193.10791,  1.07311533
 7194.68506,  1.07982621
 7196.28223,  1.05516609
 7197.89844,  1.05967405
 7199.53418,  1.05653483
 7201.18994,  1.05506506
 7202.86475,  1.05275432
 7204.55908,  1.05149495
 7206.27246,  1.05254856
 7208.00586,  1.05597669
 7209.75879,  1.05757683
 7211.53076,  1.06075791
 7213.32227,  1.06190095
 7215.13330,  1.06880998
 7216.96436,  1.07279604
 7218.81396,  1.07607657
 7220.68359,  1.08253365
 7222.57275,  1.08744785
 7224.48145,  1.09034781
 7226.40918,  1.09761466
 7228.35645,  1.09994670
 7230.32373,  1.10490052
 7232.31006,  1.10914919
 7234.31592,  1.11286960
 7236.34131,  1.11436142
 7238.38574,  1.11934525
 7240.45020,  1.12196591
 7242.53369,  1.12097852
 7244.63721,  1.12569519
 7246.75977,  1.12539319
 7248.90186,  1.12795167
 7251.06348,  1.12741901
 7253.24463,  1.13033631
 7255.44531,  1.12943652
 7257.66553,  1.12865796
 7259.90479,  1.12827638
 7262.16357,  1.13229216
 7264.44238,  1.13184946
 7266.74023,  1.13391866
 7269.05762,  1.13595301
 7271.39453,  1.13968183
 7273.75098,  1.14180323
 7276.12646,  1.14326690
 7278.52197,  1.14645694
 7280.93701,  1.14891687
 7283.37109,  1.15261254
 7285.82471,  1.15340953
 7288.29785,  1.15884898
 7290.79053,  1.15939804
 7293.30273,  1.16321868
 7295.83447,  1.16558311
 7298.38525,  1.16770895
 7300.95605,  1.16823292
 7303.54590,  1.17204387
 7306.15527,  1.17529621
 7308.78467,  1.17864416
 7311.43311,  1.18299298
 7314.10059,  1.18505366
 7316.78809,  1.18670399
 7319.49512,  1.19238770
 7322.22119,  1.19469957
 7324.96729,  1.19717311
 7327.73242,  1.20256814
 7330.51709,  1.20452011
 7333.32129,  1.20696148
 7336.14502,  1.21180648
 7338.98828,  1.21293315
 7341.85107,  1.21598046
 7344.73291,  1.21902591
 7347.63477,  1.22248164
 7350.55566,  1.22432388
 7353.49609,  1.22712578
 7356.45605,  1.22822116
 7359.43555,  1.23020729
 7362.43457,  1.23282565
 7365.45312,  1.23344159
 7368.49121,  1.24074619
 7371.54834,  1.24374262
 7374.62500,  1.24294393
 7377.72168,  1.24600280
 7380.83740,  1.24695291
 7383.97266,  1.25129901
 7387.12744,  1.25606944
 7390.30176,  1.26076797
 7393.49512,  1.26463660
 7396.70850,  1.26764590
 7399.94092,  1.27169278
 7403.19287,  1.27627180
 7406.46484,  1.27846216
 7409.75586,  1.28396515
 7413.06641,  1.28632333
 7416.39600,  1.28945303
 7419.74561,  1.29352163
 7423.11475,  1.29842582
 7426.50293,  1.30180923
 7429.91064,  1.30361286
 7433.33838,  1.30698577
 7436.78516,  1.31052413
 7440.25146,  1.31222588
 7443.73682,  1.31653711
 7447.24219,  1.32275410
 7450.76709,  1.32739416
 7454.31104,  1.33115991
 7457.87500,  1.33477263
 7461.45801,  1.33845391
 7465.06055,  1.34210838
 7468.68262,  1.34599741
 7472.32422,  1.34984018
 7475.98535,  1.35244184
 7479.66553,  1.35807028
 7483.36572,  1.36269905
 7487.08496,  1.36792113
 7490.82422,  1.37213298
 7494.58252,  1.37809896
 7498.36035,  1.38323223
 7502.15771,  1.38856921
 7505.97412,  1.39255741
 7509.81055,  1.39854357
 7513.66650,  1.40209141
 7517.54150,  1.40758132
 7521.43604,  1.41103411
 7525.35059,  1.41715948
 7529.28418,  1.42003054
 7533.23730,  1.42437646
 7537.20996,  1.42844660
 7541.20166,  1.43258882
 7545.21338,  1.43933572
 7549.24414,  1.44333915
 7553.29492,  1.44851401
 7557.36475,  1.45308783
 7561.45410,  1.45736005
 7565.56299,  1.46147705
 7569.69141,  1.46617748
 7573.83936,  1.47072890
 7578.00635,  1.47587244
 7582.19336,  1.48178136
 7586.39941,  1.48539946
 7590.62500,  1.49055646
 7594.87061,  1.49607128
 7599.13525,  1.50006028
 7603.41943,  1.50467799
 7607.72266,  1.50958321
 7612.04590,  1.51265939
 7616.38867,  1.51991934
 7620.75049,  1.52629022
 7625.13184,  1.52948343
 7629.53320,  1.53537087
 7633.95361,  1.54078098
 7638.39355,  1.54750298
 7642.85254,  1.55141210
 7647.33154,  1.55904482
 7651.83008,  1.56309165
 7656.34766,  1.56951492
 7660.88525,  1.57544954
 7665.44189,  1.58023221
 7670.01807,  1.58555271
 7674.61377,  1.59201948
 7679.22900,  1.59588010
 7683.86328,  1.58614732
 7688.51758,  1.62523819
 7693.19141,  1.59778065
 7697.88428,  1.61865378
 7702.59668,  1.62413431
 7707.32861,  1.64516373
 7712.08008,  1.61373688
 7716.85107,  1.64666711
 7721.64160,  1.64992564
 7726.45166,  1.65771548
 7731.28076,  1.66366448
 7736.12988,  1.67116030
 7740.99805,  1.67684025
 7745.88574,  1.68357626
 7750.79297,  1.69247148
 7755.71973,  1.69917734
 7760.66602,  1.70676423
 7765.63184,  1.71454696
 7770.61670,  1.72240394
 7775.62158,  1.72890265
 7780.64551,  1.73539061
 7785.68945,  1.73962806
 7790.75244,  1.74920571
 7795.83496,  1.75852352
 7800.93652,  1.76556778
 7806.05811,  1.77373184
 7811.19922,  1.77975449
 7816.35938,  1.78752021
 7821.53955,  1.79500147
 7826.73877,  1.80192677
 7831.95752,  1.81000621
 7837.19580,  1.81719577
 7842.45361,  1.82334255
 7847.73096,  1.83088923
 7853.02783,  1.83788570
 7858.34375,  1.84213518
 7863.67920,  1.84971725
 7869.03467,  1.85727339
 7874.40918,  1.86562704
 7879.80322,  1.87073277
 7885.21680,  1.87870587
 7890.64990,  1.88908513
 7896.10254,  1.89419394
 7901.57422,  1.90308210
 7907.06592,  1.91024735
 7912.57666,  1.91816098
 7918.10693,  1.92679067
 7923.65674,  1.93480543
 7929.22607,  1.94147228
 7934.81494,  1.95133291
 7940.42334,  1.95980122
 7946.05078,  1.96808743
 7951.69824,  1.97693818
 7957.36475,  1.98527506
 7963.05127,  1.99277155
 7968.75684,  2.00234858
 7974.48193,  2.00844852
 7980.22656,  2.01738096
 7985.99023,  2.02436896
 7991.77393,  2.03046224
 7997.57715,  2.03960128
 8003.39941,  2.04652109
 8009.24121,  2.05464364
 8015.10254,  2.06252346
 8020.98389,  2.07093713
 8026.88379,  2.07986761
 8032.80371,  2.08823584
 8038.74316,  2.09563272
 8044.70215,  2.10675986
 8050.68018,  2.11611843
 8056.67773,  2.12812591
 8062.69531,  2.13879088
 8068.73193,  2.14871918
 8074.78809,  2.16256585
 8080.86377,  2.17022685
 8086.95850,  2.18211668
 8093.07324,  2.19114542
 8099.20703,  2.20368376
 8105.36084,  2.21445326
