#saved Fri Feb 13 17:52:20 2026
#saving x array=energy, y array=norm
#Lepidocrocite: Lepidocrocite
#------------------------------------------
# energy, Lepidocrocite
 6880.00000,  3.35840e-4
 6890.23828,  2.19014e-4
 6900.47607,  2.29871e-4
 6910.71436,  1.30884e-4
 6920.95215,  7.18626e-5
 6931.19043, -1.71835e-5
 6941.42871, -9.66501e-6
 6951.66650, -1.67068e-5
 6961.90479,  1.06626e-5
 6972.14307, -6.30340e-5
 6982.38086, -4.62645e-5
 6992.61914,  1.02743e-5
 7002.85693, -2.43343e-5
 7013.09521,  8.43885e-5
 7023.33350,  2.02452e-4
 7033.57129,  4.42557e-4
 7043.80957,  6.79809e-4
 7054.04785,  0.00108483
 7064.28564,  0.00172175
 7074.52393,  0.00241476
 7084.76172,  0.00375788
 7095.00000,  0.00637719
 7095.25000,  0.00635128
 7095.50000,  0.00652699
 7095.75000,  0.00655470
 7096.00000,  0.00670849
 7096.25000,  0.00675726
 7096.50000,  0.00687614
 7096.75000,  0.00691385
 7097.00000,  0.00709355
 7097.25000,  0.00732337
 7097.50000,  0.00729427
 7097.75000,  0.00737555
 7098.00000,  0.00763733
 7098.25000,  0.00762699
 7098.50000,  0.00775536
 7098.75000,  0.00789503
 7099.00000,  0.00798585
 7099.25000,  0.00808098
 7099.50000,  0.00828331
 7099.75000,  0.00850400
 7100.00000,  0.00851576
 7100.25000,  0.00863129
 7100.50000,  0.00881212
 7100.75000,  0.00888639
 7101.00000,  0.00904432
 7101.25000,  0.00921014
 7101.50000,  0.00940803
 7101.75000,  0.00957593
 7102.00000,  0.00973925
 7102.25000,  0.00990722
 7102.50000,  0.01012576
 7102.75000,  0.01029414
 7103.00000,  0.01042833
 7103.25000,  0.01063638
 7103.50000,  0.01086486
 7103.75000,  0.01102120
 7104.00000,  0.01111277
 7104.25000,  0.01155733
 7104.50000,  0.01163243
 7104.75000,  0.01193385
 7105.00000,  0.01205516
 7105.25000,  0.01231497
 7105.50000,  0.01257974
 7105.75000,  0.01286339
 7106.00000,  0.01319501
 7106.25000,  0.01352389
 7106.50000,  0.01380059
 7106.75000,  0.01414058
 7107.00000,  0.01447927
 7107.25000,  0.01490342
 7107.50000,  0.01531479
 7107.75000,  0.01563868
 7108.00000,  0.01600590
 7108.25000,  0.01657059
 7108.50000,  0.01701653
 7108.75000,  0.01767739
 7109.00000,  0.01831495
 7109.25000,  0.01896436
 7109.50000,  0.01996485
 7109.75000,  0.02081247
 7110.00000,  0.02189781
 7110.25000,  0.02320582
 7110.50000,  0.02516611
 7110.75000,  0.02707190
 7111.00000,  0.02988097
 7111.25000,  0.03307359
 7111.50000,  0.03744212
 7111.75000,  0.04177095
 7112.00000,  0.04767193
 7112.25000,  0.05300602
 7112.50000,  0.05768495
 7112.75000,  0.06041336
 7113.00000,  0.06197020
 7113.25000,  0.06235123
 7113.50000,  0.06299856
 7113.75000,  0.06337182
 7114.00000,  0.06362172
 7114.25000,  0.06330230
 7114.50000,  0.06224146
 7114.75000,  0.06103742
 7115.00000,  0.06068491
 7115.25000,  0.06114371
 7115.50000,  0.06235675
 7115.75000,  0.06432909
 7116.00000,  0.06654820
 7116.25000,  0.06925596
 7116.50000,  0.07178383
 7116.75000,  0.07475344
 7117.00000,  0.07763820
 7117.25000,  0.08061807
 7117.50000,  0.08349970
 7117.75000,  0.08703558
 7118.00000,  0.09065125
 7118.25000,  0.09540819
 7118.50000,  0.09996045
 7118.75000,  0.10647519
 7119.00000,  0.11331021
 7119.25000,  0.12206273
 7119.50000,  0.13137458
 7119.75000,  0.14379690
 7120.00000,  0.15644216
 7120.25000,  0.17265888
 7120.50000,  0.18913592
 7120.75000,  0.21031006
 7121.00000,  0.23195908
 7121.25000,  0.25865762
 7121.50000,  0.28377626
 7121.75000,  0.31586896
 7122.00000,  0.34519129
 7122.25000,  0.37793075
 7122.50000,  0.40739667
 7122.75000,  0.44148234
 7123.00000,  0.47197991
 7123.25000,  0.50342488
 7123.50000,  0.53215325
 7123.75000,  0.56398608
 7124.00000,  0.59332244
 7124.25000,  0.62522112
 7124.50000,  0.65666838
 7124.75000,  0.69225581
 7125.00000,  0.72799070
 7125.25000,  0.76566930
 7125.50000,  0.80470724
 7125.75000,  0.84552423
 7126.00000,  0.88890242
 7126.25000,  0.93126035
 7126.50000,  0.97607174
 7126.75000,  1.02062867
 7127.00000,  1.06459256
 7127.25000,  1.10324126
 7127.50000,  1.14448262
 7127.75000,  1.18042774
 7128.00000,  1.21568410
 7128.25000,  1.24228324
 7128.50000,  1.26805607
 7128.75000,  1.28806614
 7129.00000,  1.30675084
 7129.25000,  1.32064387
 7129.50000,  1.33435029
 7129.75000,  1.34313744
 7130.00000,  1.35189405
 7130.25000,  1.35872297
 7130.50000,  1.36372803
 7130.75000,  1.36627772
 7131.00000,  1.36708491
 7131.25000,  1.36547069
 7131.50000,  1.36235792
 7131.75000,  1.35787579
 7132.00000,  1.35098477
 7132.25000,  1.34402156
 7132.50000,  1.33531043
 7132.75000,  1.32712675
 7133.00000,  1.31736057
 7133.25000,  1.30948501
 7133.50000,  1.29948957
 7133.75000,  1.29261908
 7134.00000,  1.28563918
 7134.25000,  1.27885223
 7134.50000,  1.27273627
 7134.75000,  1.26650531
 7135.00000,  1.26162209
 7135.25000,  1.25631809
 7135.50000,  1.25100882
 7135.75000,  1.24586872
 7136.00000,  1.24078813
 7136.25000,  1.23588547
 7136.50000,  1.23043341
 7136.75000,  1.22465411
 7137.00000,  1.21985085
 7137.25000,  1.21332495
 7137.50000,  1.20713054
 7137.75000,  1.20067517
 7138.00000,  1.19444671
 7138.25000,  1.18751171
 7138.50000,  1.18065991
 7138.75000,  1.17385786
 7139.00000,  1.16678724
 7139.25000,  1.15943446
 7139.50000,  1.15218933
 7139.75000,  1.14590153
 7140.00000,  1.13964120
 7140.25000,  1.13304061
 7140.50000,  1.12745468
 7140.75000,  1.12102843
 7141.00000,  1.11553698
 7141.25000,  1.10974676
 7141.50000,  1.10508161
 7141.75000,  1.09970984
 7142.00000,  1.09548150
 7142.25000,  1.09082795
 7142.50000,  1.08703602
 7142.75000,  1.08280952
 7143.00000,  1.07957014
 7143.25000,  1.07592400
 7143.50000,  1.07319872
 7143.75000,  1.07050282
 7144.00000,  1.06825984
 7144.25000,  1.06525381
 7144.50000,  1.06356790
 7144.75000,  1.06246660
 7145.00000,  1.06028997
 7145.25000,  1.05842479
 7145.50000,  1.05666577
 7145.75000,  1.05489649
 7146.00000,  1.05341355
 7146.25000,  1.05082263
 7146.50000,  1.04801849
 7146.75000,  1.04448852
 7147.00000,  1.04137650
 7147.25000,  1.03705686
 7147.50000,  1.03327302
 7147.75000,  1.02770554
 7148.00000,  1.02248849
 7148.25000,  1.01566182
 7148.50000,  1.00940298
 7148.75000,  1.00240556
 7149.00000,  0.99607520
 7149.25000,  0.98864380
 7149.50000,  0.98216964
 7149.75000,  0.97470686
 7150.00000,  0.96831967
 7150.25000,  0.96092307
 7150.50000,  0.95486270
 7150.75000,  0.94741060
 7151.00000,  0.94186190
 7151.25000,  0.93505116
 7151.50000,  0.92928589
 7151.75000,  0.92388140
 7152.00000,  0.91876350
 7152.25000,  0.91305982
 7152.50000,  0.90792523
 7152.75000,  0.90318656
 7153.00000,  0.89928537
 7153.25000,  0.89430868
 7153.50000,  0.89106180
 7153.75000,  0.88677529
 7154.00000,  0.88368664
 7154.25000,  0.87990906
 7154.50000,  0.87660801
 7154.75000,  0.87419010
 7155.00000,  0.87107483
 7155.25000,  0.86861987
 7155.50000,  0.86622291
 7155.75000,  0.86457647
 7156.00000,  0.86206851
 7156.25000,  0.86057989
 7156.50000,  0.85878449
 7156.75000,  0.85772033
 7157.00000,  0.85612071
 7157.25000,  0.85533947
 7157.50000,  0.85433232
 7157.75000,  0.85331539
 7158.00000,  0.85278135
 7158.25000,  0.85170860
 7158.50000,  0.85148936
 7158.75000,  0.85100497
 7159.00000,  0.85008002
 7159.25000,  0.84983223
 7159.50000,  0.84981963
 7159.75000,  0.84963310
 7160.00000,  0.84998395
 7161.09473,  0.85098635
 7162.20947,  0.85499082
 7163.34326,  0.86365966
 7164.49707,  0.87602936
 7165.67041,  0.89143945
 7166.86377,  0.90938835
 7168.07617,  0.93083547
 7169.30859,  0.95418597
 7170.56006,  0.98000067
 7171.83154,  1.00516297
 7173.12305,  1.02968929
 7174.43359,  1.05212826
 7175.76367,  1.06859204
 7177.11377,  1.07978242
 7178.48340,  1.08800572
 7179.87256,  1.09368406
 7181.28174,  1.09611934
 7182.70996,  1.09488000
 7184.15820,  1.09118767
 7185.62598,  1.08637300
 7187.11328,  1.08132579
 7188.62012,  1.07494959
 7190.14648,  1.06866709
 7191.69287,  1.06224418
 7193.25879,  1.05579038
 7194.84424,  1.05134960
 7196.44922,  1.04794818
 7198.07373,  1.04573949
 7199.71826,  1.04465535
 7201.38184,  1.04346854
 7203.06543,  1.04203634
 7204.76855,  1.04057424
 7206.49170,  1.03899402
 7208.23389,  1.03751743
 7209.99609,  1.03630261
 7211.77783,  1.03594513
 7213.57910,  1.03431315
 7215.39990,  1.03358407
 7217.24023,  1.03197157
 7219.10059,  1.03175285
 7220.98047,  1.03139874
 7222.87988,  1.03114418
 7224.79883,  1.02951539
 7226.73730,  1.02653433
 7228.69580,  1.02166136
 7230.67334,  1.01524701
 7232.67090,  1.00970709
 7234.68799,  1.00512198
 7236.72510,  1.00298211
 7238.78125,  1.00380920
 7240.85742,  1.00706334
 7242.95312,  1.01263405
 7245.06836,  1.01973958
 7247.20312,  1.02949151
 7249.35742,  1.03966537
 7251.53174,  1.04914024
 7253.72559,  1.05711555
 7255.93896,  1.06588951
 7258.17188,  1.07261108
 7260.42432,  1.07488572
 7262.69678,  1.08620144
 7264.98828,  1.09246176
 7267.29980,  1.09821297
 7269.63086,  1.10130079
 7271.98193,  1.10284481
 7274.35205,  1.10245161
 7276.74219,  1.10086695
 7279.15186,  1.09630554
 7281.58105,  1.08979004
 7284.02979,  1.08188998
 7286.49805,  1.07369780
 7288.98633,  1.06673048
 7291.49414,  1.06044773
 7294.02148,  1.05575823
 7296.56836,  1.05238782
 7299.13477,  1.05139974
 7301.72119,  1.05177048
 7304.32666,  1.05460801
 7306.95215,  1.05944554
 7309.59717,  1.06502924
 7312.26221,  1.07095033
 7314.94629,  1.07706718
 7317.65039,  1.08201562
 7320.37354,  1.08544437
 7323.11670,  1.08650226
 7325.87988,  1.08719449
 7328.66211,  1.08812172
 7331.46436,  1.08795413
 7334.28564,  1.08788025
 7337.12695,  1.08610182
 7339.98828,  1.08465836
 7342.86865,  1.08302768
 7345.76855,  1.08234956
 7348.68848,  1.08206640
 7351.62793,  1.08339978
 7354.58691,  1.08626047
 7357.56543,  1.08941499
 7360.56396,  1.09123585
 7363.58154,  1.09190365
 7366.61914,  1.09200641
 7369.67627,  1.09336643
 7372.75293,  1.09544649
 7375.84961,  1.09788922
 7378.96533,  1.10131122
 7382.10107,  1.10552452
 7385.25635,  1.10937484
 7388.43115,  1.11287195
 7391.62598,  1.11629075
 7394.83984,  1.11816250
 7398.07373,  1.11922051
 7401.32715,  1.11961894
 7404.60010,  1.11905626
 7407.89258,  1.11825837
 7411.20459,  1.11655037
 7414.53662,  1.11478425
 7417.88818,  1.11325179
 7421.25928,  1.11167014
 7424.64990,  1.11077866
 7428.06006,  1.10983508
 7431.49023,  1.11026541
 7434.93994,  1.11079838
 7438.40918,  1.11185325
 7441.89795,  1.11313837
 7445.40625,  1.11469627
 7448.93457,  1.11644351
 7452.48193,  1.11812213
 7456.04932,  1.12120246
 7459.63623,  1.12479569
 7463.24316,  1.12878823
 7466.86914,  1.13275322
 7470.51514,  1.13660659
 7474.18018,  1.13988701
 7477.86523,  1.14259998
 7481.57031,  1.14442102
 7485.29443,  1.14470786
 7489.03857,  1.14502638
 7492.80176,  1.14513416
 7496.58496,  1.14498703
 7500.38770,  1.14582625
 7504.21045,  1.14645020
 7508.05225,  1.14727911
 7511.91406,  1.14779294
 7515.79541,  1.14875199
 7519.69629,  1.14632751
 7523.61670,  1.15026666
 7527.55713,  1.15192583
 7531.51660,  1.15395470
 7535.49609,  1.15670376
 7539.49512,  1.15930542
 7543.51367,  1.16141016
 7547.55176,  1.16403514
 7551.60986,  1.16605302
 7555.68750,  1.16864381
 7559.78467,  1.17042972
 7563.90137,  1.17243202
 7568.03760,  1.17405155
 7572.19385,  1.17523065
 7576.36914,  1.17609294
 7580.56445,  1.17690621
 7584.77930,  1.17736885
 7589.01367,  1.17824766
 7593.26807,  1.17933584
 7597.54199,  1.18034755
 7601.83496,  1.18193417
 7606.14795,  1.18377306
 7610.48047,  1.18573151
 7614.83301,  1.18758085
 7619.20459,  1.19017128
 7623.59619,  1.19266336
 7628.00732,  1.18854748
 7632.43799,  1.20270885
 7636.88818,  1.19996136
 7641.35840,  1.20233533
 7645.84814,  1.20504494
 7650.35742,  1.20777698
 7654.88623,  1.21015572
 7659.43457,  1.21204355
 7664.00244,  1.21371269
 7668.59033,  1.21516357
 7673.19775,  1.21664221
 7677.82471,  1.21821330
 7682.47119,  1.21989386
 7687.13721,  1.22131335
 7691.82324,  1.22298785
 7696.52832,  1.22457019
 7701.25342,  1.22602215
 7705.99805,  1.22761612
 7710.76270,  1.22847623
 7715.54639,  1.23063024
 7720.35010,  1.23331683
 7725.17334,  1.23511559
 7730.01611,  1.23726943
 7734.87842,  1.23947216
 7739.76025,  1.24176591
 7744.66211,  1.24385083
 7749.58350,  1.24646074
 7754.52441,  1.24848594
 7759.48486,  1.25106468
 7764.46484,  1.25320350
 7769.46484,  1.25528236
 7774.48438,  1.25748121
 7779.52344,  1.25949301
 7784.58203,  1.26136567
 7789.66016,  1.26338176
 7794.75781,  1.26550541
 7799.87549,  1.26761016
 7805.01270,  1.26982180
 7810.16943,  1.27146758
 7815.34570,  1.27354814
 7820.54199,  1.27553078
 7825.75732,  1.27747810
 7830.99268,  1.27923486
 7836.24756,  1.28138284
 7841.52197,  1.28353614
 7846.81592,  1.28610335
 7852.12988,  1.28818265
 7857.46338,  1.29058674
 7862.81641,  1.29297604
 7868.18896,  1.29585603
 7873.58105,  1.29843256
 7878.99268,  1.30070628
 7884.42432,  1.30256368
 7889.87549,  1.30485588
 7895.34619,  1.30673201
 7900.83643,  1.30866646
 7906.34668,  1.31040735
 7911.87598,  1.31250340
 7917.42529,  1.31424533
 7922.99414,  1.31659153
 7928.58252,  1.31884333
 7934.19043,  1.32089797
 7939.81836,  1.32297562
 7945.46582,  1.32545760
 7951.13281,  1.32783531
 7956.81934,  1.33024905
 7962.52539,  1.33311110
 7968.25098,  1.33547705
 7973.99658,  1.33826836
 7979.76172,  1.34063410
 7985.54639,  1.34351849
 7991.35059,  1.34587241
 7997.17480,  1.34852124
 8003.01807,  1.35067607
 8008.88135,  1.35301565
 8014.76416,  1.35539367
 8020.66650,  1.35786672
 8026.58838,  1.36006059
 8032.53027,  1.36248235
 8038.49170,  1.36467934
 8044.47217,  1.36698155
 8050.47314,  1.36945180
 8056.49316,  1.37206100
 8062.53271,  1.37451085
 8068.59229,  1.37707008
 8074.67139,  1.37942640
 8080.77002,  1.38176743
 8086.88818,  1.38424689
 8093.02588,  1.38680903
 8099.18359,  1.38920014
 8105.36084,  1.39168561
