#saved Fri Feb 13 17:52:20 2026
#saving x array=energy, y array=norm
#Mackinawite: Mackinawite
#------------------------------------------
# energy, Mackinawite
 6880.00000,  1.66421e-4
 6890.23828,  8.24420e-7
 6900.47607, -1.25345e-6
 6910.71436,  6.23744e-5
 6920.95215,  5.88692e-5
 6931.19043,  8.70963e-6
 6941.42871, -2.76258e-5
 6951.66650, -7.24332e-5
 6961.90479, -9.90244e-5
 6972.14307, -9.84908e-5
 6982.38086, -4.14208e-5
 6992.61914,  2.09042e-4
 7002.85693,  4.41028e-4
 7013.09521,  6.49527e-4
 7023.33350,  8.94039e-4
 7033.57129,  0.00123066
 7043.80957,  0.00155194
 7054.04785,  0.00218591
 7064.28564,  0.00283535
 7074.52393,  0.00392039
 7084.76172,  0.00582972
 7095.00000,  0.00958067
 7095.25000,  0.00969748
 7095.50000,  0.00978857
 7095.75000,  0.01001652
 7096.00000,  0.01011409
 7096.25000,  0.01030060
 7096.50000,  0.01042824
 7096.75000,  0.01062051
 7097.00000,  0.01082028
 7097.25000,  0.01101498
 7097.50000,  0.01115326
 7097.75000,  0.01133514
 7098.00000,  0.01146563
 7098.25000,  0.01171594
 7098.50000,  0.01191739
 7098.75000,  0.01211205
 7099.00000,  0.01234629
 7099.25000,  0.01251668
 7099.50000,  0.01275223
 7099.75000,  0.01305384
 7100.00000,  0.01332260
 7100.25000,  0.01364742
 7100.50000,  0.01390716
 7100.75000,  0.01419600
 7101.00000,  0.01451101
 7101.25000,  0.01479663
 7101.50000,  0.01513279
 7101.75000,  0.01547384
 7102.00000,  0.01589955
 7102.25000,  0.01616886
 7102.50000,  0.01662186
 7102.75000,  0.01703250
 7103.00000,  0.01755542
 7103.25000,  0.01801363
 7103.50000,  0.01851357
 7103.75000,  0.01897970
 7104.00000,  0.01958056
 7104.25000,  0.02017500
 7104.50000,  0.02085035
 7104.75000,  0.02155555
 7105.00000,  0.02231099
 7105.25000,  0.02315299
 7105.50000,  0.02410834
 7105.75000,  0.02513602
 7106.00000,  0.02619042
 7106.25000,  0.02732277
 7106.50000,  0.02868453
 7106.75000,  0.03031667
 7107.00000,  0.03189524
 7107.25000,  0.03395916
 7107.50000,  0.03618652
 7107.75000,  0.03901819
 7108.00000,  0.04189583
 7108.25000,  0.04574811
 7108.50000,  0.05019348
 7108.75000,  0.05602091
 7109.00000,  0.06235635
 7109.25000,  0.07165675
 7109.50000,  0.08156038
 7109.75000,  0.09488575
 7110.00000,  0.10771670
 7110.25000,  0.12390427
 7110.50000,  0.13905491
 7110.75000,  0.15523277
 7111.00000,  0.16776570
 7111.25000,  0.17952822
 7111.50000,  0.18644590
 7111.75000,  0.18993181
 7112.00000,  0.19002747
 7112.25000,  0.18814622
 7112.50000,  0.18598193
 7112.75000,  0.18508717
 7113.00000,  0.18602701
 7113.25000,  0.18999406
 7113.50000,  0.19677427
 7113.75000,  0.20688014
 7114.00000,  0.22016554
 7114.25000,  0.23768572
 7114.50000,  0.25814028
 7114.75000,  0.28092923
 7115.00000,  0.30712029
 7115.25000,  0.33564513
 7115.50000,  0.36683743
 7115.75000,  0.39593375
 7116.00000,  0.42909521
 7116.25000,  0.46166587
 7116.50000,  0.49683584
 7116.75000,  0.52835149
 7117.00000,  0.56367995
 7117.25000,  0.59597537
 7117.50000,  0.62993473
 7117.75000,  0.65702272
 7118.00000,  0.68642018
 7118.25000,  0.71061013
 7118.50000,  0.73231934
 7118.75000,  0.74801147
 7119.00000,  0.76290194
 7119.25000,  0.77253406
 7119.50000,  0.78022605
 7119.75000,  0.78540637
 7120.00000,  0.78976030
 7120.25000,  0.79281764
 7120.50000,  0.79656075
 7120.75000,  0.80020162
 7121.00000,  0.80507323
 7121.25000,  0.80986608
 7121.50000,  0.81639445
 7121.75000,  0.82208520
 7122.00000,  0.83005242
 7122.25000,  0.83763439
 7122.50000,  0.84509814
 7122.75000,  0.85245076
 7123.00000,  0.86080902
 7123.25000,  0.86793829
 7123.50000,  0.87515994
 7123.75000,  0.88164786
 7124.00000,  0.88903149
 7124.25000,  0.89528200
 7124.50000,  0.90145743
 7124.75000,  0.90651780
 7125.00000,  0.91219139
 7125.25000,  0.91798060
 7125.50000,  0.92277827
 7125.75000,  0.92707240
 7126.00000,  0.93163301
 7126.25000,  0.93592976
 7126.50000,  0.93995562
 7126.75000,  0.94438602
 7127.00000,  0.94785838
 7127.25000,  0.95161892
 7127.50000,  0.95445628
 7127.75000,  0.95779705
 7128.00000,  0.96072156
 7128.25000,  0.96333860
 7128.50000,  0.96587868
 7128.75000,  0.96872686
 7129.00000,  0.97120941
 7129.25000,  0.97368101
 7129.50000,  0.97597886
 7129.75000,  0.97816751
 7130.00000,  0.97990374
 7130.25000,  0.98264541
 7130.50000,  0.98433547
 7130.75000,  0.98692812
 7131.00000,  0.98955459
 7131.25000,  0.99190026
 7131.50000,  0.99420334
 7131.75000,  0.99656333
 7132.00000,  0.99905443
 7132.25000,  1.00137371
 7132.50000,  1.00288162
 7132.75000,  1.00561929
 7133.00000,  1.00752348
 7133.25000,  1.00911764
 7133.50000,  1.01082100
 7133.75000,  1.01262040
 7134.00000,  1.01410440
 7134.25000,  1.01535885
 7134.50000,  1.01727448
 7134.75000,  1.01855806
 7135.00000,  1.01993693
 7135.25000,  1.02142548
 7135.50000,  1.02277652
 7135.75000,  1.02422670
 7136.00000,  1.02564380
 7136.25000,  1.02710169
 7136.50000,  1.02843964
 7136.75000,  1.03014727
 7137.00000,  1.03164237
 7137.25000,  1.03303433
 7137.50000,  1.03474727
 7137.75000,  1.03633674
 7138.00000,  1.03756322
 7138.25000,  1.03897158
 7138.50000,  1.04038861
 7138.75000,  1.04109887
 7139.00000,  1.04243220
 7139.25000,  1.04343063
 7139.50000,  1.04507798
 7139.75000,  1.04598761
 7140.00000,  1.04758681
 7140.25000,  1.04865186
 7140.50000,  1.04982667
 7140.75000,  1.05101153
 7141.00000,  1.05244297
 7141.25000,  1.05303224
 7141.50000,  1.05436626
 7141.75000,  1.05533301
 7142.00000,  1.05669376
 7142.25000,  1.05777500
 7142.50000,  1.05870799
 7142.75000,  1.05922596
 7143.00000,  1.06006966
 7143.25000,  1.06062242
 7143.50000,  1.06137890
 7143.75000,  1.06212242
 7144.00000,  1.06319058
 7144.25000,  1.06336862
 7144.50000,  1.06357057
 7144.75000,  1.06454104
 7145.00000,  1.06427051
 7145.25000,  1.06380460
 7145.50000,  1.06329584
 7145.75000,  1.06335414
 7146.00000,  1.06287211
 7146.25000,  1.06237196
 7146.50000,  1.06108056
 7146.75000,  1.05940680
 7147.00000,  1.05771939
 7147.25000,  1.05660250
 7147.50000,  1.05439625
 7147.75000,  1.05242486
 7148.00000,  1.05049433
 7148.25000,  1.04853032
 7148.50000,  1.04643547
 7148.75000,  1.04442171
 7149.00000,  1.04062008
 7149.25000,  1.03797215
 7149.50000,  1.03582715
 7149.75000,  1.03309993
 7150.00000,  1.03037222
 7150.25000,  1.02781937
 7150.50000,  1.02525018
 7150.75000,  1.02302458
 7151.00000,  1.02049728
 7151.25000,  1.01803523
 7151.50000,  1.01528548
 7151.75000,  1.01239132
 7152.00000,  1.01033871
 7152.25000,  1.00689856
 7152.50000,  1.00423692
 7152.75000,  1.00172837
 7153.00000,  0.99933301
 7153.25000,  0.99703299
 7153.50000,  0.99460436
 7153.75000,  0.99231330
 7154.00000,  0.99009493
 7154.25000,  0.98797569
 7154.50000,  0.98562966
 7154.75000,  0.98355844
 7155.00000,  0.98171051
 7155.25000,  0.98004832
 7155.50000,  0.97824242
 7155.75000,  0.97663921
 7156.00000,  0.97554009
 7156.25000,  0.97362581
 7156.50000,  0.97173359
 7156.75000,  0.97081091
 7157.00000,  0.96884841
 7157.25000,  0.96794075
 7157.50000,  0.96657522
 7157.75000,  0.96583132
 7158.00000,  0.96432676
 7158.25000,  0.96315261
 7158.50000,  0.96260148
 7158.75000,  0.96190491
 7159.00000,  0.96157955
 7159.25000,  0.96076193
 7159.50000,  0.96036243
 7159.75000,  0.95995715
 7160.00000,  0.95972872
 7161.09473,  0.95815006
 7162.20947,  0.95727770
 7163.34326,  0.95666494
 7164.49707,  0.95595069
 7165.67041,  0.95600510
 7166.86377,  0.95605694
 7168.07617,  0.95703956
 7169.30859,  0.95835953
 7170.56006,  0.96101339
 7171.83154,  0.96348866
 7173.12305,  0.96635668
 7174.43359,  0.97031339
 7175.76367,  0.97607174
 7177.11377,  0.98376402
 7178.48340,  0.99374895
 7179.87256,  1.00560313
 7181.28174,  1.01878096
 7182.70996,  1.03264003
 7184.15820,  1.04624155
 7185.62598,  1.05839596
 7187.11328,  1.06873053
 7188.62012,  1.07736065
 7190.14648,  1.08330522
 7191.69287,  1.08721029
 7193.25879,  1.08906707
 7194.84424,  1.08978971
 7196.44922,  1.08921287
 7198.07373,  1.08706986
 7199.71826,  1.08387655
 7201.38184,  1.07930268
 7203.06543,  1.07352707
 7204.76855,  1.06681774
 7206.49170,  1.05973127
 7208.23389,  1.05227789
 7209.99609,  1.04538757
 7211.77783,  1.03811213
 7213.57910,  1.03094643
 7215.39990,  1.02351777
 7217.24023,  1.01633831
 7219.10059,  1.00973726
 7220.98047,  1.00473456
 7222.87988,  1.00061653
 7224.79883,  0.99863650
 7226.73730,  0.99819412
 7228.69580,  0.99926878
 7230.67334,  1.00210122
 7232.67090,  1.00657636
 7234.68799,  1.01279176
 7236.72510,  1.02007288
 7238.78125,  1.02807031
 7240.85742,  1.03653325
 7242.95312,  1.04533080
 7245.06836,  1.05423025
 7247.20312,  1.06321348
 7249.35742,  1.07210955
 7251.53174,  1.08165067
 7253.72559,  1.09114536
 7255.93896,  1.09524039
 7258.17188,  1.10166619
 7260.42432,  1.10762357
 7262.69678,  1.09786500
 7264.98828,  1.10596328
 7267.29980,  1.10399196
 7269.63086,  1.10062361
 7271.98193,  1.09595128
 7274.35205,  1.09034359
 7276.74219,  1.08409813
 7279.15186,  1.07766769
 7281.58105,  1.07229175
 7284.02979,  1.06854496
 7286.49805,  1.06599375
 7288.98633,  1.06514291
 7291.49414,  1.06549407
 7294.02148,  1.06632700
 7296.56836,  1.06769118
 7299.13477,  1.06839419
 7301.72119,  1.06936035
 7304.32666,  1.06985089
 7306.95215,  1.07004917
 7309.59717,  1.07071165
 7312.26221,  1.07116826
 7314.94629,  1.07205355
 7317.65039,  1.07340290
 7320.37354,  1.07662495
 7323.11670,  1.08149266
 7325.87988,  1.08785791
 7328.66211,  1.09440499
 7331.46436,  1.10063334
 7334.28564,  1.10651670
 7337.12695,  1.11121306
 7339.98828,  1.11489418
 7342.86865,  1.11711552
 7345.76855,  1.11764495
 7348.68848,  1.11650769
 7351.62793,  1.11479377
 7354.58691,  1.11309812
 7357.56543,  1.11234095
 7360.56396,  1.11238410
 7363.58154,  1.11221364
 7366.61914,  1.11277426
 7369.67627,  1.11264174
 7372.75293,  1.11256943
 7375.84961,  1.11229477
 7378.96533,  1.11225354
 7382.10107,  1.11284440
 7385.25635,  1.11285393
 7388.43115,  1.11320049
 7391.62598,  1.11397129
 7394.83984,  1.11512984
 7398.07373,  1.11677491
 7401.32715,  1.11842012
 7404.60010,  1.12082109
 7407.89258,  1.12334209
 7411.20459,  1.12644001
 7414.53662,  1.12919178
 7417.88818,  1.13192055
 7421.25928,  1.13434439
 7424.64990,  1.13537905
 7428.06006,  1.13663666
 7431.49023,  1.13708653
 7434.93994,  1.13787895
 7438.40918,  1.13918132
 7441.89795,  1.14096031
 7445.40625,  1.14305208
 7448.93457,  1.14505840
 7452.48193,  1.14735671
 7456.04932,  1.14959990
 7459.63623,  1.15160182
 7463.24316,  1.15324878
 7466.86914,  1.15490416
 7470.51514,  1.15677806
 7474.18018,  1.15875174
 7477.86523,  1.16066932
 7481.57031,  1.16214100
 7485.29443,  1.16402841
 7489.03857,  1.16537334
 7492.80176,  1.16673867
 7496.58496,  1.16828325
 7500.38770,  1.16963906
 7504.21045,  1.17117123
 7508.05225,  1.17325470
 7511.91406,  1.17499300
 7515.79541,  1.17820950
 7519.69629,  1.17870564
 7523.61670,  1.17998428
 7527.55713,  1.18122323
 7531.51660,  1.18247749
 7535.49609,  1.18445594
 7539.49512,  1.18524377
 7543.51367,  1.18717263
 7547.55176,  1.18905795
 7551.60986,  1.19142606
 7555.68750,  1.19374347
 7559.78467,  1.19626729
 7563.90137,  1.19901185
 7568.03760,  1.20102034
 7572.19385,  1.20363274
 7576.36914,  1.20639177
 7580.56445,  1.20847300
 7584.77930,  1.21087707
 7589.01367,  1.21319820
 7593.26807,  1.21552289
 7597.54199,  1.21802478
 7601.83496,  1.22069617
 7606.14795,  1.22331642
 7610.48047,  1.22623774
 7614.83301,  1.22924338
 7619.20459,  1.23203077
 7623.59619,  1.23328980
 7628.00732,  1.24919547
 7632.43799,  1.23704797
 7636.88818,  1.24177500
 7641.35840,  1.24188335
 7645.84814,  1.24286803
 7650.35742,  1.24476474
 7654.88623,  1.24629466
 7659.43457,  1.24823160
 7664.00244,  1.25046727
 7668.59033,  1.25299752
 7673.19775,  1.25519860
 7677.82471,  1.25858148
 7682.47119,  1.26098180
 7687.13721,  1.26361664
 7691.82324,  1.26656630
 7696.52832,  1.26936718
 7701.25342,  1.27186752
 7705.99805,  1.27469980
 7710.76270,  1.27721832
 7715.54639,  1.28042428
 7720.35010,  1.28360404
 7725.17334,  1.28686277
 7730.01611,  1.28977509
 7734.87842,  1.29290760
 7739.76025,  1.29619030
 7744.66211,  1.29897502
 7749.58350,  1.30165957
 7754.52441,  1.30449127
 7759.48486,  1.30675860
 7764.46484,  1.30961360
 7769.46484,  1.31259135
 7774.48438,  1.31553755
 7779.52344,  1.31811709
 7784.58203,  1.31960329
 7789.66016,  1.32199862
 7794.75781,  1.32401916
 7799.87549,  1.32640345
 7805.01270,  1.32936356
 7810.16943,  1.33173407
 7815.34570,  1.33392105
 7820.54199,  1.33783698
 7825.75732,  1.34034956
 7830.99268,  1.34370815
 7836.24756,  1.34722160
 7841.52197,  1.35075932
 7846.81592,  1.35446982
 7852.12988,  1.35722281
 7857.46338,  1.36030829
 7862.81641,  1.36352701
 7868.18896,  1.36694676
 7873.58105,  1.37026401
 7878.99268,  1.37363457
 7884.42432,  1.37707609
 7889.87549,  1.38038547
 7895.34619,  1.38446219
 7900.83643,  1.38702365
 7906.34668,  1.39012234
 7911.87598,  1.39365342
 7917.42529,  1.39690588
 7922.99414,  1.39991529
 7928.58252,  1.40339000
 7934.19043,  1.40569793
 7939.81836,  1.40798586
 7945.46582,  1.41014786
 7951.13281,  1.41088016
 7956.81934,  1.41254281
 7962.52539,  1.41530750
 7968.25098,  1.41714501
 7973.99658,  1.41986421
 7979.76172,  1.41975186
 7985.54639,  1.42006431
 7991.35059,  1.42046357
 7997.17480,  1.42071718
 8003.01807,  1.42045079
 8008.88135,  1.42118872
 8014.76416,  1.42160396
 8020.66650,  1.42355719
 8026.58838,  1.42622417
 8032.53027,  1.42401301
 8038.49170,  1.42391042
 8044.47217,  1.42508157
 8050.47314,  1.42682217
 8056.49316,  1.42679124
 8062.53271, -0.06832605
 8068.59229, -0.05365277
 8074.67139, -0.03909658
 8080.77002, -0.02485233
 8086.88818, -0.01071819
 8093.02588,  0.00312036
 8099.18359,  0.01698215
 8105.36084,  0.03029818
