#saved Fri Feb 13 17:52:20 2026
#saving x array=energy, y array=norm
#Nontronite: Nontronite
#------------------------------------------
# energy, Nontronite
 6880.00000,  3.14603e-4
 6890.23828,  2.69674e-4
 6900.47607,  1.73734e-4
 6910.71436,  1.09712e-4
 6920.95215,  6.18044e-5
 6931.19043,  7.55139e-5
 6941.42871,  2.97682e-5
 6951.66650,  1.32203e-5
 6961.90479, -1.16865e-4
 6972.14307, -1.59292e-4
 6982.38086, -2.18839e-5
 6992.61914, -1.02673e-4
 7002.85693,  4.44350e-5
 7013.09521,  1.75972e-4
 7023.33350,  2.60056e-4
 7033.57129,  4.26488e-4
 7043.80957,  8.60054e-4
 7054.04785,  0.00130324
 7064.28564,  0.00192514
 7074.52393,  0.00307851
 7084.76172,  0.00465422
 7095.00000,  0.00769276
 7095.25000,  0.00786554
 7095.50000,  0.00796740
 7095.75000,  0.00803652
 7096.00000,  0.00816465
 7096.25000,  0.00828646
 7096.50000,  0.00844832
 7096.75000,  0.00852138
 7097.00000,  0.00866348
 7097.25000,  0.00872693
 7097.50000,  0.00893434
 7097.75000,  0.00900118
 7098.00000,  0.00919182
 7098.25000,  0.00930322
 7098.50000,  0.00941899
 7098.75000,  0.00966408
 7099.00000,  0.00971936
 7099.25000,  0.00987051
 7099.50000,  0.00998256
 7099.75000,  0.01012897
 7100.00000,  0.01029061
 7100.25000,  0.01055866
 7100.50000,  0.01063066
 7100.75000,  0.01081009
 7101.00000,  0.01100964
 7101.25000,  0.01116321
 7101.50000,  0.01141223
 7101.75000,  0.01158878
 7102.00000,  0.01188588
 7102.25000,  0.01191955
 7102.50000,  0.01232252
 7102.75000,  0.01228439
 7103.00000,  0.01259701
 7103.25000,  0.01278639
 7103.50000,  0.01305240
 7103.75000,  0.01330843
 7104.00000,  0.01354513
 7104.25000,  0.01373071
 7104.50000,  0.01393365
 7104.75000,  0.01427375
 7105.00000,  0.01449643
 7105.25000,  0.01491212
 7105.50000,  0.01520078
 7105.75000,  0.01547387
 7106.00000,  0.01584697
 7106.25000,  0.01615586
 7106.50000,  0.01652304
 7106.75000,  0.01681610
 7107.00000,  0.01724801
 7107.25000,  0.01763732
 7107.50000,  0.01797008
 7107.75000,  0.01841596
 7108.00000,  0.01887662
 7108.25000,  0.01951201
 7108.50000,  0.02008768
 7108.75000,  0.02062195
 7109.00000,  0.02119885
 7109.25000,  0.02201053
 7109.50000,  0.02266935
 7109.75000,  0.02350491
 7110.00000,  0.02454388
 7110.25000,  0.02556758
 7110.50000,  0.02700077
 7110.75000,  0.02850563
 7111.00000,  0.03045961
 7111.25000,  0.03283666
 7111.50000,  0.03581850
 7111.75000,  0.03952920
 7112.00000,  0.04418874
 7112.25000,  0.04879166
 7112.50000,  0.05454788
 7112.75000,  0.05969298
 7113.00000,  0.06470714
 7113.25000,  0.06838141
 7113.50000,  0.07168653
 7113.75000,  0.07416162
 7114.00000,  0.07591393
 7114.25000,  0.07653981
 7114.50000,  0.07617520
 7114.75000,  0.07516833
 7115.00000,  0.07301662
 7115.25000,  0.07092005
 7115.50000,  0.06857712
 7115.75000,  0.06685335
 7116.00000,  0.06555500
 7116.25000,  0.06499483
 7116.50000,  0.06517614
 7116.75000,  0.06607396
 7117.00000,  0.06742566
 7117.25000,  0.06912106
 7117.50000,  0.07170218
 7117.75000,  0.07454082
 7118.00000,  0.07803770
 7118.25000,  0.08166105
 7118.50000,  0.08611848
 7118.75000,  0.09066404
 7119.00000,  0.09637396
 7119.25000,  0.10234623
 7119.50000,  0.11006780
 7119.75000,  0.11832957
 7120.00000,  0.12851506
 7120.25000,  0.13959611
 7120.50000,  0.15317616
 7120.75000,  0.16835174
 7121.00000,  0.18554737
 7121.25000,  0.20447964
 7121.50000,  0.22661402
 7121.75000,  0.25067146
 7122.00000,  0.27522734
 7122.25000,  0.30301507
 7122.50000,  0.33319071
 7122.75000,  0.36593584
 7123.00000,  0.39727079
 7123.25000,  0.43164917
 7123.50000,  0.46471814
 7123.75000,  0.49939311
 7124.00000,  0.52964722
 7124.25000,  0.56309109
 7124.50000,  0.59243215
 7124.75000,  0.62402638
 7125.00000,  0.65165045
 7125.25000,  0.68377645
 7125.50000,  0.71291502
 7125.75000,  0.74713145
 7126.00000,  0.77678688
 7126.25000,  0.81406690
 7126.50000,  0.84848370
 7126.75000,  0.88651466
 7127.00000,  0.91915116
 7127.25000,  0.95772726
 7127.50000,  0.99055116
 7127.75000,  1.02454997
 7128.00000,  1.05180994
 7128.25000,  1.07964509
 7128.50000,  1.10164794
 7128.75000,  1.12238195
 7129.00000,  1.13914395
 7129.25000,  1.15502936
 7129.50000,  1.16831792
 7129.75000,  1.18084642
 7130.00000,  1.19112352
 7130.25000,  1.20151210
 7130.50000,  1.21159686
 7130.75000,  1.22141645
 7131.00000,  1.22998900
 7131.25000,  1.23883142
 7131.50000,  1.24658518
 7131.75000,  1.25375253
 7132.00000,  1.25922037
 7132.25000,  1.26462341
 7132.50000,  1.26791119
 7132.75000,  1.27030024
 7133.00000,  1.27043733
 7133.25000,  1.26869002
 7133.50000,  1.26663844
 7133.75000,  1.26223074
 7134.00000,  1.25740270
 7134.25000,  1.25175014
 7134.50000,  1.24396844
 7134.75000,  1.23727780
 7135.00000,  1.22881712
 7135.25000,  1.22129715
 7135.50000,  1.21233137
 7135.75000,  1.20470301
 7136.00000,  1.19666291
 7136.25000,  1.18941614
 7136.50000,  1.18254669
 7136.75000,  1.17679114
 7137.00000,  1.17095278
 7137.25000,  1.16575990
 7137.50000,  1.16100343
 7137.75000,  1.15661695
 7138.00000,  1.15197677
 7138.25000,  1.14818486
 7138.50000,  1.14384471
 7138.75000,  1.14039871
 7139.00000,  1.13607932
 7139.25000,  1.13254248
 7139.50000,  1.12872820
 7139.75000,  1.12485772
 7140.00000,  1.12105227
 7140.25000,  1.11753905
 7140.50000,  1.11389796
 7140.75000,  1.11011384
 7141.00000,  1.10667999
 7141.25000,  1.10334638
 7141.50000,  1.10031178
 7141.75000,  1.09764247
 7142.00000,  1.09435450
 7142.25000,  1.09191721
 7142.50000,  1.08931534
 7142.75000,  1.08748305
 7143.00000,  1.08545578
 7143.25000,  1.08396137
 7143.50000,  1.08292492
 7143.75000,  1.08250609
 7144.00000,  1.08170809
 7144.25000,  1.08196331
 7144.50000,  1.08194223
 7144.75000,  1.08216028
 7145.00000,  1.08261460
 7145.25000,  1.08299609
 7145.50000,  1.08340843
 7145.75000,  1.08325718
 7146.00000,  1.08319228
 7146.25000,  1.08219713
 7146.50000,  1.08199048
 7146.75000,  1.08007285
 7147.00000,  1.07777847
 7147.25000,  1.07521215
 7147.50000,  1.07257656
 7147.75000,  1.06861822
 7148.00000,  1.06367010
 7148.25000,  1.05884263
 7148.50000,  1.05331715
 7148.75000,  1.04747477
 7149.00000,  1.04098198
 7149.25000,  1.03479117
 7149.50000,  1.02807874
 7149.75000,  1.02079136
 7150.00000,  1.01365939
 7150.25000,  1.00656974
 7150.50000,  1.00039315
 7150.75000,  0.99356419
 7151.00000,  0.98686232
 7151.25000,  0.98033133
 7151.50000,  0.97472063
 7151.75000,  0.96882779
 7152.00000,  0.96357183
 7152.25000,  0.95778038
 7152.50000,  0.95334413
 7152.75000,  0.94812453
 7153.00000,  0.94389391
 7153.25000,  0.93947091
 7153.50000,  0.93539226
 7153.75000,  0.93119336
 7154.00000,  0.92765663
 7154.25000,  0.92412570
 7154.50000,  0.92046533
 7154.75000,  0.91670496
 7155.00000,  0.91357023
 7155.25000,  0.91023192
 7155.50000,  0.90707075
 7155.75000,  0.90382729
 7156.00000,  0.90107947
 7156.25000,  0.89839502
 7156.50000,  0.89580220
 7156.75000,  0.89327665
 7157.00000,  0.89081281
 7157.25000,  0.88807417
 7157.50000,  0.88622548
 7157.75000,  0.88340758
 7158.00000,  0.88129854
 7158.25000,  0.87970612
 7158.50000,  0.87780284
 7158.75000,  0.87605622
 7159.00000,  0.87447556
 7159.25000,  0.87286778
 7159.50000,  0.87184475
 7159.75000,  0.87071661
 7160.00000,  0.86998106
 7161.09473,  0.86818277
 7162.20947,  0.86959511
 7163.34326,  0.87469584
 7164.49707,  0.88378366
 7165.67041,  0.89641536
 7166.86377,  0.91176560
 7168.07617,  0.92944261
 7169.30859,  0.94788858
 7170.56006,  0.96727905
 7171.83154,  0.98652450
 7173.12305,  1.00636399
 7174.43359,  1.02614003
 7175.76367,  1.04406833
 7177.11377,  1.05699693
 7178.48340,  1.06645859
 7179.87256,  1.07415990
 7181.28174,  1.07879557
 7182.70996,  1.08065909
 7184.15820,  1.08061857
 7185.62598,  1.07905041
 7187.11328,  1.07723895
 7188.62012,  1.07538180
 7190.14648,  1.07337377
 7191.69287,  1.07153705
 7193.25879,  1.07043545
 7194.84424,  1.06944919
 7196.44922,  1.06839544
 7198.07373,  1.06606317
 7199.71826,  1.06346856
 7201.38184,  1.05986323
 7203.06543,  1.05581503
 7204.76855,  1.05168914
 7206.49170,  1.04730559
 7208.23389,  1.04272680
 7209.99609,  1.03859251
 7211.77783,  1.03460588
 7213.57910,  1.03184952
 7215.39990,  1.03020756
 7217.24023,  1.03052449
 7219.10059,  1.03296168
 7220.98047,  1.03631682
 7222.87988,  1.04003537
 7224.79883,  1.04309347
 7226.73730,  1.04431623
 7228.69580,  1.04460168
 7230.67334,  1.04359187
 7232.67090,  1.04209525
 7234.68799,  1.03982534
 7236.72510,  1.03734308
 7238.78125,  1.03592317
 7240.85742,  1.03563866
 7242.95312,  1.03659437
 7245.06836,  1.03948753
 7247.20312,  1.04335713
 7249.35742,  1.04932543
 7251.53174,  1.05614870
 7253.72559,  1.06383555
 7255.93896,  1.07138542
 7258.17188,  1.07928034
 7260.42432,  1.08596763
 7262.69678,  1.09215378
 7264.98828,  1.09671069
 7267.29980,  1.10062298
 7269.63086,  1.10283710
 7271.98193,  1.10478416
 7274.35205,  1.10686652
 7276.74219,  1.10789687
 7279.15186,  1.10911768
 7281.58105,  1.10890892
 7284.02979,  1.10777295
 7286.49805,  1.10648014
 7288.98633,  1.10387212
 7291.49414,  1.10121082
 7294.02148,  1.09773139
 7296.56836,  1.09419789
 7299.13477,  1.09115454
 7301.72119,  1.08871475
 7304.32666,  1.08713122
 7306.95215,  1.08689044
 7309.59717,  1.08821998
 7312.26221,  1.09040047
 7314.94629,  1.09406883
 7317.65039,  1.09781913
 7320.37354,  1.10230675
 7323.11670,  1.10620400
 7325.87988,  1.10971870
 7328.66211,  1.11318989
 7331.46436,  1.11587080
 7334.28564,  1.11801032
 7337.12695,  1.11952655
 7339.98828,  1.12060175
 7342.86865,  1.12146896
 7345.76855,  1.12215320
 7348.68848,  1.12289840
 7351.62793,  1.12379311
 7354.58691,  1.12463329
 7357.56543,  1.12561496
 7360.56396,  1.12721568
 7363.58154,  1.12827066
 7366.61914,  1.12996878
 7369.67627,  1.13243253
 7372.75293,  1.13497354
 7375.84961,  1.13827169
 7378.96533,  1.14179448
 7382.10107,  1.14595594
 7385.25635,  1.14943012
 7388.43115,  1.15323514
 7391.62598,  1.15656906
 7394.83984,  1.15916766
 7398.07373,  1.16133083
 7401.32715,  1.16272254
 7404.60010,  1.16320894
 7407.89258,  1.16353988
 7411.20459,  1.16283695
 7414.53662,  1.16195126
 7417.88818,  1.16185196
 7421.25928,  1.16164240
 7424.64990,  1.16174224
 7428.06006,  1.16259761
 7431.49023,  1.16368644
 7434.93994,  1.16501953
 7438.40918,  1.16657415
 7441.89795,  1.16903731
 7445.40625,  1.17137495
 7448.93457,  1.17424712
 7452.48193,  1.17643121
 7456.04932,  1.17964162
 7459.63623,  1.18288364
 7463.24316,  1.18650765
 7466.86914,  1.19011935
 7470.51514,  1.19374258
 7474.18018,  1.19748275
 7477.86523,  1.20068508
 7481.57031,  1.20342675
 7485.29443,  1.20588361
 7489.03857,  1.20810357
 7492.80176,  1.20966734
 7496.58496,  1.21146813
 7500.38770,  1.21268704
 7504.21045,  1.21409846
 7508.05225,  1.21545261
 7511.91406,  1.21681130
 7515.79541,  1.21913713
 7519.69629,  1.22110807
 7523.61670,  1.22322828
 7527.55713,  1.22599783
 7531.51660,  1.22895531
 7535.49609,  1.23176066
 7539.49512,  1.23465153
 7543.51367,  1.23733281
 7547.55176,  1.24002470
 7551.60986,  1.24282849
 7555.68750,  1.24553233
 7559.78467,  1.24786532
 7563.90137,  1.25029335
 7568.03760,  1.25268038
 7572.19385,  1.25503021
 7576.36914,  1.25720015
 7580.56445,  1.25969199
 7584.77930,  1.26186149
 7589.01367,  1.26452527
 7593.26807,  1.26659684
 7597.54199,  1.26897367
 7601.83496,  1.27123474
 7606.14795,  1.27379808
 7610.48047,  1.27659340
 7614.83301,  1.27963445
 7619.20459,  1.28266537
 7623.59619,  1.28577870
 7628.00732,  1.28898316
 7632.43799,  1.29260780
 7636.88818,  1.29613411
 7641.35840,  1.29994010
 7645.84814,  1.30311329
 7650.35742,  1.30636430
 7654.88623,  1.30947868
 7659.43457,  1.31261995
 7664.00244,  1.31573308
 7668.59033,  1.31806431
 7673.19775,  1.32091883
 7677.82471,  1.32315086
 7682.47119,  1.32699324
 7687.13721,  1.32903170
 7691.82324,  1.33182845
 7696.52832,  1.33461231
 7701.25342,  1.33754408
 7705.99805,  1.34040388
 7710.76270,  1.34356068
 7715.54639,  1.34841053
 7720.35010,  1.34858123
 7725.17334,  1.35235918
 7730.01611,  1.35577672
 7734.87842,  1.35867982
 7739.76025,  1.36210920
 7744.66211,  1.36548473
 7749.58350,  1.36897135
 7754.52441,  1.37231468
 7759.48486,  1.37565589
 7764.46484,  1.37887147
 7769.46484,  1.38240194
 7774.48438,  1.38594487
 7779.52344,  1.38935597
 7784.58203,  1.39291887
 7789.66016,  1.39624363
 7794.75781,  1.39951225
 7799.87549,  1.40299885
 7805.01270,  1.40648025
 7810.16943,  1.40999738
 7815.34570,  1.41339266
 7820.54199,  1.41656091
 7825.75732,  1.42017574
 7830.99268,  1.42381712
 7836.24756,  1.42730969
 7841.52197,  1.43090774
 7846.81592,  1.43447948
 7852.12988,  1.43810323
 7857.46338,  1.44181594
 7862.81641,  1.44560166
 7868.18896,  1.44929489
 7873.58105,  1.45301984
 7878.99268,  1.45678994
 7884.42432,  1.46048807
 7889.87549,  1.46419407
 7895.34619,  1.46777673
 7900.83643,  1.47161052
 7906.34668,  1.47517886
 7911.87598,  1.47890382
 7917.42529,  1.48270695
 7922.99414,  1.48670949
 7928.58252,  1.49045071
 7934.19043,  1.49431208
 7939.81836,  1.49828809
 7945.46582,  1.50256053
 7951.13281,  1.50632209
 7956.81934,  1.51058618
 7962.52539,  1.51479724
 7968.25098,  1.51907741
 7973.99658,  1.52315188
 7979.76172,  1.52748047
 7985.54639,  1.53166599
 7991.35059,  1.53596259
 7997.17480,  1.54006497
 8003.01807,  1.54450703
 8008.88135,  1.54880601
 8014.76416,  1.55316505
 8020.66650,  1.55748952
 8026.58838,  1.56163341
 8032.53027,  1.56564720
 8038.49170,  1.56987449
 8044.47217,  1.57414739
 8050.47314,  1.57832193
 8056.49316,  1.58270621
 8062.53271,  1.58682608
 8068.59229,  1.59096769
 8074.67139,  1.59497437
 8080.77002,  1.59917839
 8086.88818,  1.60317845
 8093.02588,  1.60757769
 8099.18359,  1.61203813
 8105.36084,  1.61646630
