#saved Fri Feb 13 17:52:20 2026
#saving x array=energy, y array=norm
#Schwertmannite: Schwertmannite
#------------------------------------------
# energy, Schwertmannite
 6898.12500,  8.15402e-4
 6908.36328,  5.25905e-4
 6918.60107,  4.78798e-4
 6928.83936,  3.80225e-4
 6939.07715,  1.35856e-4
 6949.31543,  1.72163e-5
 6959.55371, -1.86833e-5
 6969.79150, -1.73698e-4
 6980.02979, -2.90371e-4
 6990.26807, -3.84699e-4
 7000.50586, -4.32362e-4
 7010.74414, -4.64745e-4
 7020.98193, -3.12462e-4
 7031.22021, -2.59259e-4
 7041.45850, -1.36978e-4
 7051.69629,  5.19692e-4
 7061.93457,  9.41470e-4
 7072.17285,  0.00170354
 7082.41064,  0.00298245
 7092.64893,  0.00522695
 7102.88672,  0.01001997
 7113.12500,  0.03745059
 7113.37500,  0.04302619
 7113.62500,  0.05043704
 7113.87500,  0.05904300
 7114.12500,  0.06736370
 7114.37500,  0.07408302
 7114.62500,  0.07966819
 7114.87500,  0.08468202
 7115.12500,  0.09014033
 7115.37500,  0.09487804
 7115.62500,  0.09722515
 7115.87500,  0.09577548
 7116.12500,  0.09112239
 7116.37500,  0.08528474
 7116.62500,  0.08052360
 7116.87500,  0.07737943
 7117.12500,  0.07605491
 7117.37500,  0.07588970
 7117.62500,  0.07646914
 7117.87500,  0.07755209
 7118.12500,  0.07904097
 7118.37500,  0.08104135
 7118.62500,  0.08300933
 7118.87500,  0.08549244
 7119.12500,  0.08787341
 7119.37500,  0.09079390
 7119.62500,  0.09396574
 7119.87500,  0.09732285
 7120.12500,  0.10157267
 7120.37500,  0.10649680
 7120.62500,  0.11253846
 7120.87500,  0.11958810
 7121.12500,  0.12813926
 7121.37500,  0.13816779
 7121.62500,  0.15030241
 7121.87500,  0.16426830
 7122.12500,  0.18083116
 7122.37500,  0.19956592
 7122.62500,  0.22087694
 7122.87500,  0.24586539
 7123.12500,  0.27296997
 7123.37500,  0.30335678
 7123.62500,  0.33553401
 7123.87500,  0.37003387
 7124.12500,  0.40547675
 7124.37500,  0.44090241
 7124.62500,  0.47731017
 7124.87500,  0.51268009
 7125.12500,  0.54763664
 7125.37500,  0.58104543
 7125.62500,  0.61361140
 7125.87500,  0.64622701
 7126.12500,  0.67747297
 7126.37500,  0.70841078
 7126.62500,  0.73977404
 7126.87500,  0.77005216
 7127.12500,  0.80121842
 7127.37500,  0.83181802
 7127.62500,  0.86223785
 7127.87500,  0.89351154
 7128.12500,  0.92392554
 7128.37500,  0.95449345
 7128.62500,  0.98524903
 7128.87500,  1.01516421
 7129.12500,  1.04352513
 7129.37500,  1.07235534
 7129.62500,  1.09860163
 7129.87500,  1.12380755
 7130.12500,  1.14610044
 7130.37500,  1.16737927
 7130.62500,  1.18512579
 7130.87500,  1.20108463
 7131.12500,  1.21476513
 7131.37500,  1.22636698
 7131.62500,  1.23596035
 7131.87500,  1.24433747
 7132.12500,  1.25045706
 7132.37500,  1.25557525
 7132.62500,  1.25996540
 7132.87500,  1.26234933
 7133.12500,  1.26415789
 7133.37500,  1.26510782
 7133.62500,  1.26589980
 7133.87500,  1.26489987
 7134.12500,  1.26386414
 7134.37500,  1.26146270
 7134.62500,  1.25874913
 7134.87500,  1.25540894
 7135.12500,  1.25123534
 7135.37500,  1.24673938
 7135.62500,  1.24200683
 7135.87500,  1.23712486
 7136.12500,  1.23200451
 7136.37500,  1.22670997
 7136.62500,  1.22153766
 7136.87500,  1.21675324
 7137.12500,  1.21161791
 7137.37500,  1.20659782
 7137.62500,  1.20204127
 7137.87500,  1.19750258
 7138.12500,  1.19310058
 7138.37500,  1.18859564
 7138.62500,  1.18391874
 7138.87500,  1.17904789
 7139.12500,  1.17469148
 7139.37500,  1.16942135
 7139.62500,  1.16410903
 7139.87500,  1.15924205
 7140.12500,  1.15412260
 7140.37500,  1.14857084
 7140.62500,  1.14320764
 7140.87500,  1.13805920
 7141.12500,  1.13253293
 7141.37500,  1.12740756
 7141.62500,  1.12237607
 7141.87500,  1.11763033
 7142.12500,  1.11277788
 7142.37500,  1.10811247
 7142.62500,  1.10387210
 7142.87500,  1.09950798
 7143.12500,  1.09533537
 7143.37500,  1.09189277
 7143.62500,  1.08844578
 7143.87500,  1.08505847
 7144.12500,  1.08179707
 7144.37500,  1.07870566
 7144.62500,  1.07594631
 7144.87500,  1.07295712
 7145.12500,  1.07022309
 7145.37500,  1.06777508
 7145.62500,  1.06512253
 7145.87500,  1.06269830
 7146.12500,  1.06063558
 7146.37500,  1.05822589
 7146.62500,  1.05614065
 7146.87500,  1.05398019
 7147.12500,  1.05130574
 7147.37500,  1.04925594
 7147.62500,  1.04643360
 7147.87500,  1.04400156
 7148.12500,  1.04125442
 7148.37500,  1.03815978
 7148.62500,  1.03549942
 7148.87500,  1.03232975
 7149.12500,  1.02870057
 7149.37500,  1.02534072
 7149.62500,  1.02155753
 7149.87500,  1.01744532
 7150.12500,  1.01370826
 7150.37500,  1.00950137
 7150.62500,  1.00579348
 7150.87500,  1.00089392
 7151.12500,  0.99690431
 7151.37500,  0.99185935
 7151.62500,  0.98820127
 7151.87500,  0.98360398
 7152.12500,  0.97950317
 7152.37500,  0.97497579
 7152.62500,  0.97055324
 7152.87500,  0.96679742
 7153.12500,  0.96274445
 7153.37500,  0.95868322
 7153.62500,  0.95486009
 7153.87500,  0.95080864
 7154.12500,  0.94729946
 7154.37500,  0.94373319
 7154.62500,  0.94042045
 7154.87500,  0.93737122
 7155.12500,  0.93350529
 7155.37500,  0.93066840
 7155.62500,  0.92765076
 7155.87500,  0.92458609
 7156.12500,  0.92142907
 7156.37500,  0.91885739
 7156.62500,  0.91641674
 7156.87500,  0.91386588
 7157.12500,  0.91119493
 7157.37500,  0.90880185
 7157.62500,  0.90664713
 7157.87500,  0.90450104
 7158.12500,  0.90263414
 7158.37500,  0.90083322
 7158.62500,  0.89890763
 7158.87500,  0.89745860
 7159.12500,  0.89599818
 7159.37500,  0.89471267
 7159.62500,  0.89364858
 7159.87500,  0.89293817
 7160.12500,  0.89187309
 7160.37500,  0.89134766
 7160.62500,  0.89094447
 7160.87500,  0.89031861
 7161.12500,  0.89013700
 7161.37500,  0.89026673
 7161.62500,  0.89045336
 7161.87500,  0.89073602
 7162.12500,  0.89106014
 7162.37500,  0.89149941
 7162.62500,  0.89206263
 7162.87500,  0.89323325
 7163.12500,  0.89355316
 7163.37500,  0.89492428
 7163.62500,  0.89618780
 7163.87500,  0.89742546
 7164.12500,  0.89912273
 7164.37500,  0.90046648
 7164.62500,  0.90211950
 7164.87500,  0.90377593
 7165.12500,  0.90555164
 7165.37500,  0.90769468
 7165.62500,  0.90961856
 7165.87500,  0.91177552
 7166.12500,  0.91377757
 7166.37500,  0.91639475
 7166.62500,  0.91862350
 7166.87500,  0.92089911
 7167.12500,  0.92344844
 7167.37500,  0.92614397
 7167.62500,  0.92866450
 7167.87500,  0.93121706
 7168.12500,  0.93423398
 7168.37500,  0.93712786
 7168.62500,  0.94008680
 7168.87500,  0.94258516
 7169.12500,  0.94572961
 7169.37500,  0.94844408
 7169.62500,  0.95127531
 7169.87500,  0.95440226
 7170.12500,  0.95742797
 7170.37500,  0.96055277
 7170.62500,  0.96317947
 7170.87500,  0.96639320
 7171.12500,  0.96939935
 7171.37500,  0.97217620
 7171.62500,  0.97507070
 7171.87500,  0.97823086
 7172.12500,  0.98097934
 7172.37500,  0.98387142
 7172.62500,  0.98671495
 7172.87500,  0.98947905
 7173.12500,  0.99225320
 7173.37500,  0.99536885
 7173.62500,  0.99835597
 7173.87500,  1.00076808
 7174.12500,  1.00386380
 7174.37500,  1.00737209
 7174.62500,  1.00993210
 7174.87500,  1.01314988
 7175.12500,  1.01597644
 7175.37500,  1.01919457
 7175.62500,  1.02197420
 7175.87500,  1.02537722
 7176.12500,  1.02829909
 7176.37500,  1.03127428
 7176.62500,  1.03364484
 7176.87500,  1.03589962
 7177.12500,  1.03759958
 7177.37500,  1.03945381
 7177.62500,  1.04112631
 7177.87500,  1.04240212
 7178.12500,  1.04393093
 7179.22119,  1.04932049
 7180.33691,  1.05382124
 7181.47266,  1.05763745
 7182.62793,  1.06079578
 7183.80273,  1.06262114
 7184.99756,  1.06359313
 7186.21143,  1.06358362
 7187.44580,  1.06332070
 7188.69922,  1.06310308
 7189.97266,  1.06351097
 7191.26514,  1.06285361
 7192.57812,  1.06201841
 7193.91016,  1.06123632
 7195.26221,  1.05969304
 7196.63379,  1.05832429
 7198.02490,  1.05724916
 7199.43604,  1.05580675
 7200.86670,  1.05468999
 7202.31689,  1.05322472
 7203.78711,  1.05155298
 7205.27637,  1.04907367
 7206.78613,  1.04654513
 7208.31494,  1.04340053
 7209.86377,  1.04065358
 7211.43164,  1.03710361
 7213.02002,  1.03437050
 7214.62744,  1.03147589
 7216.25488,  1.02897749
 7217.90186,  1.02735257
 7219.56836,  1.02666414
 7221.25488,  1.02622274
 7222.96094,  1.02648189
 7224.68652,  1.02763157
 7226.43213,  1.02862263
 7228.19678,  1.02981829
 7229.98145,  1.03134355
 7231.78613,  1.03231378
 7233.60986,  1.03322008
 7235.45361,  1.03392297
 7237.31738,  1.03465122
 7239.20020,  1.03530846
 7241.10303,  1.03714871
 7243.02539,  1.03813130
 7244.96729,  1.04100548
 7246.92920,  1.04415389
 7248.91064,  1.04719295
 7250.91162,  1.05051073
 7252.93262,  1.05388009
 7254.97266,  1.05718883
 7257.03271,  1.05943259
 7259.11279,  1.06307261
 7261.21191,  1.06598547
 7263.33105,  1.06886804
 7265.47021,  1.07125813
 7267.62842,  1.07347265
 7269.80664,  1.07564180
 7272.00439,  1.07812360
 7274.22168,  1.07963888
 7276.45898,  1.08136673
 7278.71582,  1.08324263
 7280.99219,  1.08461861
 7283.28857,  1.08546010
 7285.60400,  1.08589401
 7287.93945,  1.08528125
 7290.29492,  1.08390083
 7292.66943,  1.08292156
 7295.06396,  1.08123415
 7297.47803,  1.07974432
 7299.91211,  1.07850235
 7302.36572,  1.07763952
 7304.83887,  1.07673170
 7307.33154,  1.07640272
 7309.84424,  1.07632499
 7312.37646,  1.07668781
 7314.92822,  1.07740743
 7317.49951,  1.07863086
 7320.09082,  1.08013212
 7322.70166,  1.08173422
 7325.33252,  1.08365731
 7327.98242,  1.08563369
 7330.65234,  1.08812464
 7333.34180,  1.09039567
 7336.05127,  1.09242498
 7338.78027,  1.09480328
 7341.52881,  1.09626191
 7344.29688,  1.09714890
 7347.08496,  1.09778886
 7349.89258,  1.09815524
 7352.71973,  1.09850768
 7355.56641,  1.09901624
 7358.43311,  1.09970741
 7361.31934,  1.10075861
 7364.22559,  1.10207651
 7367.15088,  1.10333936
 7370.09619,  1.10490408
 7373.06104,  1.10608528
 7376.04590,  1.10743993
 7379.05029,  1.10890529
 7382.07422,  1.11054787
 7385.11768,  1.11240716
 7388.18115,  1.11415755
 7391.26416,  1.11646893
 7394.36670,  1.11863819
 7397.48877,  1.12092697
 7400.63086,  1.12311062
 7403.79248,  1.12512838
 7406.97363,  1.12671693
 7410.17480,  1.12790580
 7413.39551,  1.12878931
 7416.63574,  1.12914651
 7419.89600,  1.12933791
 7423.17529,  1.12936217
 7426.47510,  1.12946141
 7429.79395,  1.12987179
 7433.13232,  1.13059050
 7436.49072,  1.13150447
 7439.86914,  1.13243779
 7443.26660,  1.13368340
 7446.68408,  1.13489811
 7450.12109,  1.13648819
 7453.57764,  1.13812967
 7457.05420,  1.13993113
 7460.55029,  1.14164470
 7464.06592,  1.14382483
 7467.60156,  1.14590952
 7471.15625,  1.14813213
 7474.73096,  1.15032562
 7478.32568,  1.15277136
 7481.93945,  1.15493122
 7485.57324,  1.15702445
 7489.22656,  1.15878621
 7492.89990,  1.16039563
 7496.59277,  1.16171764
 7500.30518,  1.16301611
 7504.03711,  1.16409565
 7507.78906,  1.16556287
 7511.56055,  1.16687757
 7515.35156,  1.16849477
 7519.16211,  1.17021085
 7522.99268,  1.17185016
 7526.84277,  1.17355862
 7530.71289,  1.17532620
 7534.60205,  1.17739395
 7538.51123,  1.17922509
 7542.43994,  1.18128560
 7546.38867,  1.18323182
 7550.35693,  1.18524549
 7554.34473,  1.18725537
 7558.35205,  1.18937129
 7562.37939,  1.19148762
 7566.42627,  1.19345046
 7570.49268,  1.19555165
 7574.57861,  1.19743203
 7578.68457,  1.19914454
 7582.81006,  1.20092990
 7586.95508,  1.20252020
 7591.12012,  1.20419438
 7595.30469,  1.20583945
 7599.50879,  1.20761004
 7603.73291,  1.20926302
 7607.97607,  1.21105976
 7612.23975,  1.21299663
 7616.52246,  1.21493052
 7620.82471,  1.21690476
 7625.14697,  1.21921759
 7629.48926,  1.22125530
 7633.85059,  1.22358251
 7638.23193,  1.22543500
 7642.63281,  1.22766745
 7647.05322,  1.22991998
 7651.49365,  1.23009893
 7655.95361,  1.23462497
 7660.43311,  1.23673505
 7664.93262,  1.23915976
 7669.45117,  1.24120076
 7673.98975,  1.24357854
 7678.54834,  1.24575571
 7683.12598,  1.24803372
 7687.72363,  1.25018793
 7692.34082,  1.25230047
 7696.97803,  1.25458242
 7701.63477,  1.25687949
 7706.31104,  1.25926593
 7711.00684,  1.26140382
 7715.72266,  1.26366732
 7720.45801,  1.26585091
 7725.21289,  1.26820939
 7729.98730,  1.27052234
 7734.78174,  1.27281011
 7739.59570,  1.27521345
 7744.42969,  1.27747154
 7749.28271,  1.27992167
 7754.15576,  1.28235291
 7759.04834,  1.28471052
 7763.96094,  1.28723206
 7768.89307,  1.28977960
 7773.84473,  1.29224203
 7778.81592,  1.29488293
 7783.80713,  1.29723606
 7788.81738,  1.29949341
 7793.84814,  1.30195157
 7798.89795,  1.30441723
 7803.96777,  1.30683665
 7809.05713,  1.30947366
 7814.16602,  1.31204675
 7819.29492,  1.31456379
 7824.44336,  1.31729683
 7829.61133,  1.31987573
 7834.79932,  1.32239510
 7840.00635,  1.32508325
 7845.23340,  1.32760713
 7850.48047,  1.33019253
 7855.74658,  1.33305425
 7861.03271,  1.33574010
 7866.33838,  1.33846632
 7871.66406,  1.34107843
 7877.00928,  1.34395256
 7882.37402,  1.34663111
 7887.75830,  1.34940394
 7893.16260,  1.35213618
 7898.58643,  1.35484190
 7904.02979,  1.35777565
 7909.49268,  1.36058164
 7914.97559,  1.36347197
 7920.47803,  1.36622692
 7926.00049,  1.36912812
 7931.54199,  1.37202364
 7937.10352,  1.37492559
 7942.68457,  1.37790900
 7948.28564,  1.38087361
 7953.90625,  1.38353645
 7959.54639,  1.38637939
 7965.20605,  1.38933681
 7970.88574,  1.39230272
 7976.58447,  1.39525182
 7982.30371,  1.39823813
 7988.04199,  1.40114614
 7993.80029,  1.40408733
 7999.57812,  1.40706079
 8005.37549,  1.41008259
