#saved Fri Feb 13 17:52:20 2026
#saving x array=energy, y array=norm
#Siderite-n: Siderite-n
#------------------------------------------
# energy, Siderite-n
 6880.00000,  4.71783e-4
 6890.23828,  4.22813e-4
 6900.47607,  3.30942e-4
 6910.71436,  2.11554e-4
 6920.95215,  1.18766e-4
 6931.19043,  7.05874e-5
 6941.42871, -3.79615e-5
 6951.66650, -8.91940e-5
 6961.90479, -4.78399e-5
 6972.14307, -8.33745e-5
 6982.38086, -4.53298e-5
 6992.61914, -9.16425e-5
 7002.85693,  5.92656e-5
 7013.09521,  1.46723e-4
 7023.33350,  3.14804e-4
 7033.57129,  4.76962e-4
 7043.80957,  7.64968e-4
 7054.04785,  0.00121339
 7064.28564,  0.00196802
 7074.52393,  0.00293325
 7084.76172,  0.00475590
 7095.00000,  0.00826951
 7095.25000,  0.00835914
 7095.50000,  0.00848117
 7095.75000,  0.00868494
 7096.00000,  0.00874941
 7096.25000,  0.00890626
 7096.50000,  0.00908086
 7096.75000,  0.00919555
 7097.00000,  0.00937097
 7097.25000,  0.00955984
 7097.50000,  0.00964827
 7097.75000,  0.00984803
 7098.00000,  0.01006527
 7098.25000,  0.01011811
 7098.50000,  0.01038332
 7098.75000,  0.01051416
 7099.00000,  0.01072327
 7099.25000,  0.01088702
 7099.50000,  0.01113773
 7099.75000,  0.01124135
 7100.00000,  0.01151617
 7100.25000,  0.01168869
 7100.50000,  0.01198435
 7100.75000,  0.01216163
 7101.00000,  0.01239929
 7101.25000,  0.01256118
 7101.50000,  0.01280927
 7101.75000,  0.01311583
 7102.00000,  0.01337086
 7102.25000,  0.01362353
 7102.50000,  0.01392058
 7102.75000,  0.01415796
 7103.00000,  0.01445617
 7103.25000,  0.01480558
 7103.50000,  0.01506054
 7103.75000,  0.01550239
 7104.00000,  0.01563721
 7104.25000,  0.01603443
 7104.50000,  0.01646275
 7104.75000,  0.01683932
 7105.00000,  0.01717071
 7105.25000,  0.01763518
 7105.50000,  0.01804543
 7105.75000,  0.01855380
 7106.00000,  0.01899474
 7106.25000,  0.01947652
 7106.50000,  0.01992278
 7106.75000,  0.02053907
 7107.00000,  0.02099601
 7107.25000,  0.02167460
 7107.50000,  0.02228309
 7107.75000,  0.02293499
 7108.00000,  0.02379482
 7108.25000,  0.02452258
 7108.50000,  0.02537219
 7108.75000,  0.02636030
 7109.00000,  0.02738148
 7109.25000,  0.02864354
 7109.50000,  0.03015503
 7109.75000,  0.03185922
 7110.00000,  0.03419088
 7110.25000,  0.03690216
 7110.50000,  0.04043052
 7110.75000,  0.04392305
 7111.00000,  0.04807986
 7111.25000,  0.05171601
 7111.50000,  0.05488919
 7111.75000,  0.05671291
 7112.00000,  0.05776289
 7112.25000,  0.05824298
 7112.50000,  0.05853531
 7112.75000,  0.05889373
 7113.00000,  0.05978724
 7113.25000,  0.06093245
 7113.50000,  0.06208764
 7113.75000,  0.06332032
 7114.00000,  0.06448128
 7114.25000,  0.06534975
 7114.50000,  0.06687707
 7114.75000,  0.06873876
 7115.00000,  0.07202998
 7115.25000,  0.07566169
 7115.50000,  0.08057680
 7115.75000,  0.08638804
 7116.00000,  0.09439822
 7116.25000,  0.10336708
 7116.50000,  0.11545404
 7116.75000,  0.12905662
 7117.00000,  0.14653124
 7117.25000,  0.16667141
 7117.50000,  0.18983610
 7117.75000,  0.21436038
 7118.00000,  0.24272588
 7118.25000,  0.27107726
 7118.50000,  0.29959882
 7118.75000,  0.32898464
 7119.00000,  0.36132766
 7119.25000,  0.39474470
 7119.50000,  0.42815907
 7119.75000,  0.46706180
 7120.00000,  0.50901983
 7120.25000,  0.55760529
 7120.50000,  0.60823629
 7120.75000,  0.66833365
 7121.00000,  0.72945053
 7121.25000,  0.79788782
 7121.50000,  0.86212335
 7121.75000,  0.93462032
 7122.00000,  0.99926645
 7122.25000,  1.06813946
 7122.50000,  1.12538298
 7122.75000,  1.18624818
 7123.00000,  1.23238847
 7123.25000,  1.27426740
 7123.50000,  1.30315186
 7123.75000,  1.32918422
 7124.00000,  1.34513361
 7124.25000,  1.35731485
 7124.50000,  1.36361848
 7124.75000,  1.36654934
 7125.00000,  1.36618433
 7125.25000,  1.36454113
 7125.50000,  1.36016850
 7125.75000,  1.35465040
 7126.00000,  1.34861094
 7126.25000,  1.34088006
 7126.50000,  1.33257925
 7126.75000,  1.31888633
 7127.00000,  1.30467265
 7127.25000,  1.28523038
 7127.50000,  1.26358276
 7127.75000,  1.23769085
 7128.00000,  1.21193490
 7128.25000,  1.18497233
 7128.50000,  1.16108498
 7128.75000,  1.13561330
 7129.00000,  1.11441819
 7129.25000,  1.09500829
 7129.50000,  1.07793079
 7129.75000,  1.06288163
 7130.00000,  1.05025289
 7130.25000,  1.03953508
 7130.50000,  1.03071089
 7130.75000,  1.02416099
 7131.00000,  1.02083049
 7131.25000,  1.02102395
 7131.50000,  1.02408718
 7131.75000,  1.02960442
 7132.00000,  1.03838567
 7132.25000,  1.04866980
 7132.50000,  1.06097965
 7132.75000,  1.07383494
 7133.00000,  1.08735710
 7133.25000,  1.09901495
 7133.50000,  1.11109409
 7133.75000,  1.12157953
 7134.00000,  1.13101568
 7134.25000,  1.13727101
 7134.50000,  1.14340989
 7134.75000,  1.14811265
 7135.00000,  1.15092137
 7135.25000,  1.15358265
 7135.50000,  1.15596117
 7135.75000,  1.15710314
 7136.00000,  1.15832823
 7136.25000,  1.15766023
 7136.50000,  1.15671820
 7136.75000,  1.15490850
 7137.00000,  1.15139715
 7137.25000,  1.14807908
 7137.50000,  1.14244628
 7137.75000,  1.13651330
 7138.00000,  1.12972761
 7138.25000,  1.12228729
 7138.50000,  1.11225525
 7138.75000,  1.10102220
 7139.00000,  1.08884816
 7139.25000,  1.07680912
 7139.50000,  1.06223278
 7139.75000,  1.04965285
 7140.00000,  1.03507616
 7140.25000,  1.02334799
 7140.50000,  1.01067182
 7140.75000,  0.99940185
 7141.00000,  0.98759720
 7141.25000,  0.97744705
 7141.50000,  0.96632677
 7141.75000,  0.95605728
 7142.00000,  0.94586014
 7142.25000,  0.93647468
 7142.50000,  0.92572792
 7142.75000,  0.91621935
 7143.00000,  0.90686547
 7143.25000,  0.89709277
 7143.50000,  0.88748988
 7143.75000,  0.87733440
 7144.00000,  0.86812567
 7144.25000,  0.85919561
 7144.50000,  0.85024438
 7144.75000,  0.84181478
 7145.00000,  0.83441173
 7145.25000,  0.82734983
 7145.50000,  0.82131579
 7145.75000,  0.81525979
 7146.00000,  0.80989498
 7146.25000,  0.80548368
 7146.50000,  0.80171563
 7146.75000,  0.79792850
 7147.00000,  0.79470570
 7147.25000,  0.79186787
 7147.50000,  0.78984181
 7147.75000,  0.78799947
 7148.00000,  0.78668455
 7148.25000,  0.78560927
 7148.50000,  0.78468816
 7148.75000,  0.78405104
 7149.00000,  0.78391509
 7149.25000,  0.78387949
 7149.50000,  0.78474761
 7149.75000,  0.78580016
 7150.00000,  0.78684965
 7150.25000,  0.78836574
 7150.50000,  0.78978752
 7150.75000,  0.79222736
 7151.00000,  0.79431548
 7151.25000,  0.79679811
 7151.50000,  0.79819206
 7151.75000,  0.80152180
 7152.00000,  0.80363608
 7152.25000,  0.80695689
 7152.50000,  0.80959919
 7152.75000,  0.81274493
 7153.00000,  0.81615368
 7153.25000,  0.81958027
 7153.50000,  0.82317108
 7153.75000,  0.82768136
 7154.00000,  0.83172119
 7154.25000,  0.83684253
 7154.50000,  0.84170680
 7154.75000,  0.84750297
 7155.00000,  0.85295056
 7155.25000,  0.85954607
 7155.50000,  0.86590412
 7155.75000,  0.87316465
 7156.00000,  0.87975578
 7156.25000,  0.88761819
 7156.50000,  0.89461030
 7156.75000,  0.90353828
 7157.00000,  0.91037868
 7157.25000,  0.91893193
 7157.50000,  0.92665111
 7157.75000,  0.93437641
 7158.00000,  0.94129774
 7158.25000,  0.94884035
 7158.50000,  0.95552239
 7158.75000,  0.96212095
 7159.00000,  0.96867131
 7159.25000,  0.97461525
 7159.50000,  0.97930245
 7159.75000,  0.98424835
 7160.00000,  0.98855819
 7161.09473,  1.00301315
 7162.20947,  1.01394676
 7163.34326,  1.02596648
 7164.49707,  1.04170927
 7165.67041,  1.05816431
 7166.86377,  1.07330045
 7168.07617,  1.08561370
 7169.30859,  1.09531998
 7170.56006,  1.10229409
 7171.83154,  1.10370369
 7173.12305,  1.09500221
 7174.43359,  1.08016788
 7175.76367,  1.06320054
 7177.11377,  1.04705718
 7178.48340,  1.03584087
 7179.87256,  1.02914628
 7181.28174,  1.02662962
 7182.70996,  1.02596466
 7184.15820,  1.02715749
 7185.62598,  1.02880675
 7187.11328,  1.03022211
 7188.62012,  1.03024212
 7190.14648,  1.02830461
 7191.69287,  1.02454101
 7193.25879,  1.01786499
 7194.84424,  1.00881326
 7196.44922,  0.99797375
 7198.07373,  0.98801038
 7199.71826,  0.98100984
 7201.38184,  0.97804114
 7203.06543,  0.97918337
 7204.76855,  0.98290101
 7206.49170,  0.98807172
 7208.23389,  0.99065365
 7209.99609,  0.99139549
 7211.77783,  0.99130709
 7213.57910,  0.99239063
 7215.39990,  0.99549926
 7217.24023,  1.00101052
 7219.10059,  1.00632313
 7220.98047,  1.01010136
 7222.87988,  1.01213897
 7224.79883,  1.01347671
 7226.73730,  1.01627284
 7228.69580,  1.02103517
 7230.67334,  1.02702756
 7232.67090,  1.03192520
 7234.68799,  1.03524391
 7236.72510,  1.03748756
 7238.78125,  1.04035179
 7240.85742,  1.04300032
 7242.95312,  1.04490942
 7245.06836,  1.04617769
 7247.20312,  1.04819619
 7249.35742,  1.05133651
 7251.53174,  1.05556285
 7253.72559,  1.06030345
 7255.93896,  1.06089283
 7258.17188,  1.06167904
 7260.42432,  1.05332727
 7262.69678,  1.04993362
 7264.98828,  1.04305721
 7267.29980,  1.03720145
 7269.63086,  1.03283778
 7271.98193,  1.02945855
 7274.35205,  1.02676841
 7276.74219,  1.02581330
 7279.15186,  1.02751788
 7281.58105,  1.03196849
 7284.02979,  1.03748623
 7286.49805,  1.04102791
 7288.98633,  1.04246080
 7291.49414,  1.04162323
 7294.02148,  1.04067303
 7296.56836,  1.04062879
 7299.13477,  1.04136506
 7301.72119,  1.04158500
 7304.32666,  1.04104320
 7306.95215,  1.04045098
 7309.59717,  1.04074601
 7312.26221,  1.04076032
 7314.94629,  1.04111103
 7317.65039,  1.04158350
 7320.37354,  1.04354754
 7323.11670,  1.04707041
 7325.87988,  1.05063647
 7328.66211,  1.05309949
 7331.46436,  1.05427064
 7334.28564,  1.05556732
 7337.12695,  1.05738413
 7339.98828,  1.06031285
 7342.86865,  1.06401228
 7345.76855,  1.06707421
 7348.68848,  1.06901078
 7351.62793,  1.06980151
 7354.58691,  1.06936478
 7357.56543,  1.06732384
 7360.56396,  1.06445413
 7363.58154,  1.06041007
 7366.61914,  1.05700416
 7369.67627,  1.05455295
 7372.75293,  1.05366233
 7375.84961,  1.05380060
 7378.96533,  1.05499918
 7382.10107,  1.05613902
 7385.25635,  1.05720831
 7388.43115,  1.05876414
 7391.62598,  1.05923825
 7394.83984,  1.05929308
 7398.07373,  1.05936206
 7401.32715,  1.06104919
 7404.60010,  1.06278749
 7407.89258,  1.06521748
 7411.20459,  1.06804484
 7414.53662,  1.06993206
 7417.88818,  1.07209652
 7421.25928,  1.07375945
 7424.64990,  1.07464366
 7428.06006,  1.07453568
 7431.49023,  1.07363489
 7434.93994,  1.07295613
 7438.40918,  1.07274929
 7441.89795,  1.07324299
 7445.40625,  1.07438043
 7448.93457,  1.07598234
 7452.48193,  1.07773700
 7456.04932,  1.07934298
 7459.63623,  1.08059214
 7463.24316,  1.08211757
 7466.86914,  1.08364552
 7470.51514,  1.08458723
 7474.18018,  1.08511177
 7477.86523,  1.08573277
 7481.57031,  1.08569807
 7485.29443,  1.08621334
 7489.03857,  1.08648675
 7492.80176,  1.08639686
 7496.58496,  1.08684206
 7500.38770,  1.08766782
 7504.21045,  1.08871710
 7508.05225,  1.08934001
 7511.91406,  1.09006438
 7515.79541,  1.09052100
 7519.69629,  1.09105415
 7523.61670,  1.09237279
 7527.55713,  1.09328516
 7531.51660,  1.09469939
 7535.49609,  1.09621804
 7539.49512,  1.09762740
 7543.51367,  1.09928679
 7547.55176,  1.10018907
 7551.60986,  1.10129947
 7555.68750,  1.10306762
 7559.78467,  1.10354277
 7563.90137,  1.10420811
 7568.03760,  1.10488498
 7572.19385,  1.10602386
 7576.36914,  1.10773563
 7580.56445,  1.10947109
 7584.77930,  1.11102392
 7589.01367,  1.11276378
 7593.26807,  1.11426135
 7597.54199,  1.11522405
 7601.83496,  1.11620712
 7606.14795,  1.11648566
 7610.48047,  1.11740367
 7614.83301,  1.11852261
 7619.20459,  1.11935369
 7623.59619,  1.12021090
 7628.00732,  1.12108138
 7632.43799,  1.12273254
 7636.88818,  1.12324303
 7641.35840,  1.12422971
 7645.84814,  1.12563468
 7650.35742,  1.12682911
 7654.88623,  1.12786550
 7659.43457,  1.12906435
 7664.00244,  1.13023640
 7668.59033,  1.13127018
 7673.19775,  1.13236448
 7677.82471,  1.13386122
 7682.47119,  1.13519696
 7687.13721,  1.13678465
 7691.82324,  1.13854800
 7696.52832,  1.13997561
 7701.25342,  1.14151064
 7705.99805,  1.14245043
 7710.76270,  1.14408235
 7715.54639,  1.14538562
 7720.35010,  1.14661704
 7725.17334,  1.14779462
 7730.01611,  1.14894794
 7734.87842,  1.15025068
 7739.76025,  1.15154744
 7744.66211,  1.15291224
 7749.58350,  1.15445594
 7754.52441,  1.15563897
 7759.48486,  1.15681796
 7764.46484,  1.15806009
 7769.46484,  1.15948863
 7774.48438,  1.16086168
 7779.52344,  1.16201152
 7784.58203,  1.16353081
 7789.66016,  1.16507650
 7794.75781,  1.16631069
 7799.87549,  1.16762194
 7805.01270,  1.16893841
 7810.16943,  1.17033351
 7815.34570,  1.17157495
 7820.54199,  1.17282790
 7825.75732,  1.17415347
 7830.99268,  1.17539124
 7836.24756,  1.17667930
 7841.52197,  1.17806506
 7846.81592,  1.17974513
 7852.12988,  1.18121291
 7857.46338,  1.18277717
 7862.81641,  1.18425706
 7868.18896,  1.18576161
 7873.58105,  1.18721424
 7878.99268,  1.18890081
 7884.42432,  1.19047527
 7889.87549,  1.19204515
 7895.34619,  1.19361860
 7900.83643,  1.19479174
 7906.34668,  1.19659647
 7911.87598,  1.19834186
 7917.42529,  1.20012256
 7922.99414,  1.20160481
 7928.58252,  1.20304861
 7934.19043,  1.20462206
 7939.81836,  1.20616635
 7945.46582,  1.20766135
 7951.13281,  1.20942843
 7956.81934,  1.21085680
 7962.52539,  1.21256110
 7968.25098,  1.21411629
 7973.99658,  1.21565947
 7979.76172,  1.21742738
 7985.54639,  1.21901548
 7991.35059,  1.22072980
 7997.17480,  1.22230927
 8003.01807,  1.22400439
 8008.88135,  1.22562764
 8014.76416,  1.22712051
 8020.66650,  1.22883103
 8026.58838,  1.23038842
 8032.53027,  1.23211464
 8038.49170,  1.23374774
 8044.47217,  1.23548459
 8050.47314,  1.23712682
 8056.49316,  1.23865329
 8062.53271,  1.24062262
 8068.59229,  1.24218297
 8074.67139,  1.24373613
 8080.77002,  1.24564606
 8086.88818,  1.24720915
 8093.02588,  1.24891937
 8099.18359,  1.25080543
 8105.36084,  1.25247124
