#saved Fri Feb 13 17:51:08 2026
#saving x array=energy, y array=flat
#2L-Fhy: 2L-Fhy
#------------------------------------------
# energy, 2L-Fhy
 6880.00000,  9.98872e-4
 6890.23828,  7.16235e-4
 6900.47607,  6.01989e-4
 6910.71436,  5.35161e-4
 6920.95215,  3.89648e-4
 6931.19043,  2.37176e-4
 6941.42871,  1.55301e-4
 6951.66650, -2.33632e-5
 6961.90479, -1.33196e-4
 6972.14307, -2.68781e-4
 6982.38086, -3.06382e-4
 6992.61914, -2.30307e-4
 7002.85693, -3.02453e-4
 7013.09521, -2.06312e-4
 7023.33350, -1.34267e-4
 7033.57129,  5.59026e-6
 7043.80957,  2.18443e-4
 7054.04785,  5.98902e-4
 7064.28564,  0.00122537
 7074.52393,  0.00218396
 7084.76172,  0.00371155
 7095.00000,  0.00669707
 7095.25000,  0.00678224
 7095.50000,  0.00682644
 7095.75000,  0.00691883
 7096.00000,  0.00702063
 7096.25000,  0.00717761
 7096.50000,  0.00732404
 7096.75000,  0.00741684
 7097.00000,  0.00751980
 7097.25000,  0.00769368
 7097.50000,  0.00774543
 7097.75000,  0.00788611
 7098.00000,  0.00802362
 7098.25000,  0.00819193
 7098.50000,  0.00822086
 7098.75000,  0.00844132
 7099.00000,  0.00858001
 7099.25000,  0.00876764
 7099.50000,  0.00892613
 7099.75000,  0.00910495
 7100.00000,  0.00933546
 7100.25000,  0.00947566
 7100.50000,  0.00950616
 7100.75000,  0.00975438
 7101.00000,  0.00989172
 7101.25000,  0.01011436
 7101.50000,  0.01040438
 7101.75000,  0.01059412
 7102.00000,  0.01070164
 7102.25000,  0.01099054
 7102.50000,  0.01116942
 7102.75000,  0.01137862
 7103.00000,  0.01171798
 7103.25000,  0.01191347
 7103.50000,  0.01216141
 7103.75000,  0.01242447
 7104.00000,  0.01263216
 7104.25000,  0.01293382
 7104.50000,  0.01333688
 7104.75000,  0.01345376
 7105.00000,  0.01380579
 7105.25000,  0.01415352
 7105.50000,  0.01446454
 7105.75000,  0.01474138
 7106.00000,  0.01517711
 7106.25000,  0.01566468
 7106.50000,  0.01605345
 7106.75000,  0.01653055
 7107.00000,  0.01706739
 7107.25000,  0.01764199
 7107.50000,  0.01812049
 7107.75000,  0.01882599
 7108.00000,  0.01946721
 7108.25000,  0.02039871
 7108.50000,  0.02113033
 7108.75000,  0.02205923
 7109.00000,  0.02315459
 7109.25000,  0.02442334
 7109.50000,  0.02570921
 7109.75000,  0.02753928
 7110.00000,  0.02935068
 7110.25000,  0.03204379
 7110.50000,  0.03462386
 7110.75000,  0.03853357
 7111.00000,  0.04279564
 7111.25000,  0.04865202
 7111.50000,  0.05449025
 7111.75000,  0.06188890
 7112.00000,  0.06934771
 7112.25000,  0.07677213
 7112.50000,  0.08301587
 7112.75000,  0.08910200
 7113.00000,  0.09289823
 7113.25000,  0.09510455
 7113.50000,  0.09581405
 7113.75000,  0.09497704
 7114.00000,  0.09336229
 7114.25000,  0.09122719
 7114.50000,  0.08953659
 7114.75000,  0.08812467
 7115.00000,  0.08753435
 7115.25000,  0.08761003
 7115.50000,  0.08857209
 7115.75000,  0.08979936
 7116.00000,  0.09179011
 7116.25000,  0.09366217
 7116.50000,  0.09621603
 7116.75000,  0.09874857
 7117.00000,  0.10234227
 7117.25000,  0.10527520
 7117.50000,  0.10968406
 7117.75000,  0.11414829
 7118.00000,  0.11994866
 7118.25000,  0.12599773
 7118.50000,  0.13419217
 7118.75000,  0.14288822
 7119.00000,  0.15423287
 7119.25000,  0.16512698
 7119.50000,  0.18024896
 7119.75000,  0.19571393
 7120.00000,  0.21469112
 7120.25000,  0.23346732
 7120.50000,  0.25690867
 7120.75000,  0.28033371
 7121.00000,  0.30786009
 7121.25000,  0.33347422
 7121.50000,  0.36446421
 7121.75000,  0.39396642
 7122.00000,  0.42499616
 7122.25000,  0.45245194
 7122.50000,  0.48446152
 7122.75000,  0.51280642
 7123.00000,  0.54210196
 7123.25000,  0.56828822
 7123.50000,  0.59757593
 7123.75000,  0.62487107
 7124.00000,  0.65173476
 7124.25000,  0.67904306
 7124.50000,  0.70787618
 7124.75000,  0.73712585
 7125.00000,  0.76556094
 7125.25000,  0.79423154
 7125.50000,  0.82471155
 7125.75000,  0.85544135
 7126.00000,  0.88369452
 7126.25000,  0.91235387
 7126.50000,  0.94117082
 7126.75000,  0.96948273
 7127.00000,  0.99351318
 7127.25000,  1.01864595
 7127.50000,  1.04272660
 7127.75000,  1.06502006
 7128.00000,  1.08390148
 7128.25000,  1.10285617
 7128.50000,  1.11987288
 7128.75000,  1.13673100
 7129.00000,  1.14891645
 7129.25000,  1.16393953
 7129.50000,  1.17511222
 7129.75000,  1.18620363
 7130.00000,  1.19463477
 7130.25000,  1.20362576
 7130.50000,  1.21016693
 7130.75000,  1.21596227
 7131.00000,  1.22073218
 7131.25000,  1.22414319
 7131.50000,  1.22730455
 7131.75000,  1.22851620
 7132.00000,  1.22834946
 7132.25000,  1.22782568
 7132.50000,  1.22588105
 7132.75000,  1.22327530
 7133.00000,  1.21997164
 7133.25000,  1.21673453
 7133.50000,  1.21220652
 7133.75000,  1.20784398
 7134.00000,  1.20437890
 7134.25000,  1.19983701
 7134.50000,  1.19572703
 7134.75000,  1.19113459
 7135.00000,  1.18667650
 7135.25000,  1.18282503
 7135.50000,  1.17772646
 7135.75000,  1.17345571
 7136.00000,  1.16847333
 7136.25000,  1.16445976
 7136.50000,  1.15998515
 7136.75000,  1.15614589
 7137.00000,  1.15141912
 7137.25000,  1.14720023
 7137.50000,  1.14224993
 7137.75000,  1.13809239
 7138.00000,  1.13303457
 7138.25000,  1.12733053
 7138.50000,  1.12196004
 7138.75000,  1.11736600
 7139.00000,  1.11261614
 7139.25000,  1.10778329
 7139.50000,  1.10228327
 7139.75000,  1.09761328
 7140.00000,  1.09207240
 7140.25000,  1.08707716
 7140.50000,  1.08143166
 7140.75000,  1.07685266
 7141.00000,  1.07237152
 7141.25000,  1.06863550
 7141.50000,  1.06391267
 7141.75000,  1.06053748
 7142.00000,  1.05648714
 7142.25000,  1.05356440
 7142.50000,  1.05001502
 7142.75000,  1.04704442
 7143.00000,  1.04444291
 7143.25000,  1.04222125
 7143.50000,  1.04021848
 7143.75000,  1.03750925
 7144.00000,  1.03568375
 7144.25000,  1.03436594
 7144.50000,  1.03300384
 7144.75000,  1.03085585
 7145.00000,  1.03048158
 7145.25000,  1.02955885
 7145.50000,  1.02743655
 7145.75000,  1.02604796
 7146.00000,  1.02411523
 7146.25000,  1.02240456
 7146.50000,  1.01990060
 7146.75000,  1.01825194
 7147.00000,  1.01524965
 7147.25000,  1.01231785
 7147.50000,  1.00909519
 7147.75000,  1.00572548
 7148.00000,  1.00166381
 7148.25000,  0.99717298
 7148.50000,  0.99321367
 7148.75000,  0.98886304
 7149.00000,  0.98464465
 7149.25000,  0.98046246
 7149.50000,  0.97630129
 7149.75000,  0.97153624
 7150.00000,  0.96682756
 7150.25000,  0.96214431
 7150.50000,  0.95738249
 7150.75000,  0.95301444
 7151.00000,  0.94825373
 7151.25000,  0.94384743
 7151.50000,  0.93931845
 7151.75000,  0.93593532
 7152.00000,  0.93142158
 7152.25000,  0.92681063
 7152.50000,  0.92317801
 7152.75000,  0.92014155
 7153.00000,  0.91742961
 7153.25000,  0.91354175
 7153.50000,  0.91012373
 7153.75000,  0.90697290
 7154.00000,  0.90418695
 7154.25000,  0.90154313
 7154.50000,  0.89950363
 7154.75000,  0.89609936
 7155.00000,  0.89349526
 7155.25000,  0.89089047
 7155.50000,  0.88880106
 7155.75000,  0.88660146
 7156.00000,  0.88431185
 7156.25000,  0.88234034
 7156.50000,  0.88056177
 7156.75000,  0.87852203
 7157.00000,  0.87702985
 7157.25000,  0.87567529
 7157.50000,  0.87335581
 7157.75000,  0.87236619
 7158.00000,  0.87142488
 7158.25000,  0.86970786
 7158.50000,  0.86925492
 7158.75000,  0.86737632
 7159.00000,  0.86653003
 7159.25000,  0.86638497
 7159.50000,  0.86526385
 7159.75000,  0.86474052
 7160.00000,  0.86458187
 7161.09473,  0.86495947
 7162.20947,  0.86788633
 7163.34326,  0.87361647
 7164.49707,  0.88099424
 7165.67041,  0.89051167
 7166.86377,  0.90160312
 7168.07617,  0.91411469
 7169.30859,  0.92799354
 7170.56006,  0.94178951
 7171.83154,  0.95740771
 7173.12305,  0.97279172
 7174.43359,  0.98751295
 7175.76367,  0.99878580
 7177.11377,  1.00665759
 7178.48340,  1.01226368
 7179.87256,  1.01731104
 7181.28174,  1.02106823
 7182.70996,  1.02361081
 7184.15820,  1.02460117
 7185.62598,  1.02418997
 7187.11328,  1.02371399
 7188.62012,  1.02372146
 7190.14648,  1.02292924
 7191.69287,  1.02092392
 7193.25879,  1.01971337
 7194.84424,  1.01765109
 7196.44922,  1.01541844
 7198.07373,  1.01358447
 7199.71826,  1.01049311
 7201.38184,  1.00866231
 7203.06543,  1.00568922
 7204.76855,  1.00254237
 7206.49170,  0.99877674
 7208.23389,  0.99500729
 7209.99609,  0.99163337
 7211.77783,  0.98825232
 7213.57910,  0.98575122
 7215.39990,  0.98349640
 7217.24023,  0.98243046
 7219.10059,  0.98182340
 7220.98047,  0.98185894
 7222.87988,  0.98127535
 7224.79883,  0.98119340
 7226.73730,  0.98152555
 7228.69580,  0.98103823
 7230.67334,  0.98040145
 7232.67090,  0.98037106
 7234.68799,  0.97955483
 7236.72510,  0.97876336
 7238.78125,  0.97857398
 7240.85742,  0.97810599
 7242.95312,  0.97838332
 7245.06836,  0.97895702
 7247.20312,  0.98046788
 7249.35742,  0.98303796
 7251.53174,  0.98716513
 7253.72559,  0.98886921
 7255.93896,  0.99327781
 7258.17188,  0.99812791
 7260.42432,  1.00210446
 7262.69678,  1.00085817
 7264.98828,  1.00770334
 7267.29980,  1.01086189
 7269.63086,  1.01285515
 7271.98193,  1.01403300
 7274.35205,  1.01445343
 7276.74219,  1.01451353
 7279.15186,  1.01440020
 7281.58105,  1.01338718
 7284.02979,  1.01148422
 7286.49805,  1.00972151
 7288.98633,  1.00770366
 7291.49414,  1.00493474
 7294.02148,  1.00264319
 7296.56836,  0.99964035
 7299.13477,  0.99796800
 7301.72119,  0.99663725
 7304.32666,  0.99547790
 7306.95215,  0.99466431
 7309.59717,  0.99465662
 7312.26221,  0.99481221
 7314.94629,  0.99543919
 7317.65039,  0.99601336
 7320.37354,  0.99686453
 7323.11670,  0.99769441
 7325.87988,  0.99824372
 7328.66211,  0.99903091
 7331.46436,  0.99903339
 7334.28564,  0.99893817
 7337.12695,  0.99886102
 7339.98828,  0.99860432
 7342.86865,  0.99780807
 7345.76855,  0.99707213
 7348.68848,  0.99684028
 7351.62793,  0.99606585
 7354.58691,  0.99589649
 7357.56543,  0.99570033
 7360.56396,  0.99533680
 7363.58154,  0.99583956
 7366.61914,  0.99691769
 7369.67627,  0.99769396
 7372.75293,  0.99892941
 7375.84961,  0.99923128
 7378.96533,  0.99974684
 7382.10107,  1.00037450
 7385.25635,  1.00099560
 7388.43115,  1.00157936
 7391.62598,  1.00184641
 7394.83984,  1.00229907
 7398.07373,  1.00299449
 7401.32715,  1.00281763
 7404.60010,  1.00258945
 7407.89258,  1.00271830
 7411.20459,  1.00177417
 7414.53662,  1.00117687
 7417.88818,  1.00072206
 7421.25928,  0.99908482
 7424.64990,  0.99815004
 7428.06006,  0.99742302
 7431.49023,  0.99640971
 7434.93994,  0.99671101
 7438.40918,  0.99693734
 7441.89795,  0.99625562
 7445.40625,  0.99631870
 7448.93457,  0.99664125
 7452.48193,  0.99701726
 7456.04932,  0.99745679
 7459.63623,  0.99785235
 7463.24316,  0.99789631
 7466.86914,  0.99795633
 7470.51514,  0.99854060
 7474.18018,  0.99875636
 7477.86523,  0.99843750
 7481.57031,  0.99868431
 7485.29443,  0.99845141
 7489.03857,  0.99857564
 7492.80176,  0.99856629
 7496.58496,  0.99869506
 7500.38770,  0.99872402
 7504.21045,  0.99873750
 7508.05225,  0.99871726
 7511.91406,  0.99810283
 7515.79541,  0.99793545
 7519.69629,  0.99819968
 7523.61670,  0.99834724
 7527.55713,  0.99906120
 7531.51660,  0.99986692
 7535.49609,  0.99988773
 7539.49512,  1.00022632
 7543.51367,  1.00004646
 7547.55176,  0.99986260
 7551.60986,  0.99983592
 7555.68750,  0.99943513
 7559.78467,  0.99940515
 7563.90137,  0.99930840
 7568.03760,  0.99929274
 7572.19385,  0.99910228
 7576.36914,  0.99908099
 7580.56445,  0.99910839
 7584.77930,  0.99916966
 7589.01367,  0.99927443
 7593.26807,  0.99913761
 7597.54199,  0.99938621
 7601.83496,  0.99912560
 7606.14795,  0.99970078
 7610.48047,  0.99982862
 7614.83301,  1.00008396
 7619.20459,  1.00024630
 7623.59619,  1.00193860
 7628.00732,  0.99775724
 7632.43799,  1.00157547
 7636.88818,  0.99990699
 7641.35840,  0.99976878
 7645.84814,  0.99946440
 7650.35742,  0.99995141
 7654.88623,  1.00017655
 7659.43457,  1.00020248
 7664.00244,  1.00059304
 7668.59033,  1.00025641
 7673.19775,  1.00079188
 7677.82471,  1.00079160
 7682.47119,  1.00054162
 7687.13721,  1.00042445
 7691.82324,  1.00081924
 7696.52832,  1.00113535
 7701.25342,  1.00132119
 7705.99805,  1.00126842
 7710.76270,  1.00076963
 7715.54639,  1.00068354
 7720.35010,  1.00125459
 7725.17334,  1.00118075
 7730.01611,  1.00163074
 7734.87842,  1.00117905
 7739.76025,  1.00122800
 7744.66211,  1.00153580
 7749.58350,  1.00062483
 7754.52441,  1.00110906
 7759.48486,  1.00110578
 7764.46484,  1.00114204
 7769.46484,  1.00140669
 7774.48438,  1.00111148
 7779.52344,  1.00113748
 7784.58203,  1.00101742
 7789.66016,  1.00114513
 7794.75781,  1.00106689
 7799.87549,  1.00165928
 7805.01270,  1.00176080
 7810.16943,  1.00116907
 7815.34570,  1.00134175
 7820.54199,  1.00126144
 7825.75732,  1.00125439
 7830.99268,  1.00119801
 7836.24756,  1.00144805
 7841.52197,  1.00121252
 7846.81592,  1.00129708
 7852.12988,  1.00134016
 7857.46338,  1.00197671
 7862.81641,  1.00146205
 7868.18896,  1.00141383
 7873.58105,  1.00076487
 7878.99268,  1.00075355
 7884.42432,  1.00154374
 7889.87549,  1.00119258
 7895.34619,  1.00155468
 7900.83643,  1.00106976
 7906.34668,  1.00087187
 7911.87598,  1.00110720
 7917.42529,  1.00161413
 7922.99414,  1.00148193
 7928.58252,  1.00099491
 7934.19043,  1.00113048
 7939.81836,  1.00071082
 7945.46582,  1.00088706
 7951.13281,  1.00095489
 7956.81934,  1.00091443
 7962.52539,  1.00056658
 7968.25098,  1.00031541
 7973.99658,  1.00156998
 7979.76172,  1.00069706
 7985.54639,  1.00025521
 7991.35059,  0.99980231
 7997.17480,  0.99970261
 8003.01807,  1.00006626
 8008.88135,  0.99971813
 8014.76416,  0.99969362
 8020.66650,  0.99903688
 8026.58838,  0.99893631
 8032.53027,  0.99847369
 8038.49170,  0.99919753
 8044.47217,  0.99925497
 8050.47314,  0.99926320
 8056.49316,  0.99826724
 8062.53271,  0.99787446
 8068.59229,  0.99796959
 8074.67139,  0.99707438
 8080.77002,  0.99707885
 8086.88818,  0.99713809
 8093.02588,  0.99651050
 8099.18359,  0.99644403
 8105.36084,  0.99626828
