#saved Fri Feb 13 17:51:08 2026
#saving x array=energy, y array=flat
#Ferrosmectite: Ferrosmectite
#------------------------------------------
# energy, Ferrosmectite
 6880.00000,  4.08772e-4
 6890.23828,  1.93933e-4
 6900.47607,  9.48923e-5
 6910.71436,  1.32002e-4
 6920.95215, -1.03535e-4
 6931.19043,  1.08555e-4
 6941.42871, -5.91035e-7
 6951.66650,  4.72595e-5
 6961.90479, -5.01552e-5
 6972.14307, -3.16628e-5
 6982.38086,  2.77067e-5
 6992.61914,  7.44282e-6
 7002.85693,  7.33019e-5
 7013.09521,  4.29669e-4
 7023.33350,  4.90490e-4
 7033.57129,  7.52081e-4
 7043.80957,  0.00101157
 7054.04785,  0.00172068
 7064.28564,  0.00208913
 7074.52393,  0.00293716
 7084.76172,  0.00449275
 7095.00000,  0.00707039
 7095.25000,  0.00700089
 7095.50000,  0.00711216
 7095.75000,  0.00740056
 7096.00000,  0.00729614
 7096.25000,  0.00748530
 7096.50000,  0.00764235
 7096.75000,  0.00769945
 7097.00000,  0.00778536
 7097.25000,  0.00784055
 7097.50000,  0.00796224
 7097.75000,  0.00805158
 7098.00000,  0.00833938
 7098.25000,  0.00831418
 7098.50000,  0.00849861
 7098.75000,  0.00848635
 7099.00000,  0.00869858
 7099.25000,  0.00883466
 7099.50000,  0.00896219
 7099.75000,  0.00905217
 7100.00000,  0.00937844
 7100.25000,  0.00932918
 7100.50000,  0.00946993
 7100.75000,  0.00960999
 7101.00000,  0.00978338
 7101.25000,  0.01001954
 7101.50000,  0.01012825
 7101.75000,  0.01026116
 7102.00000,  0.01039731
 7102.25000,  0.01059198
 7102.50000,  0.01083942
 7102.75000,  0.01096707
 7103.00000,  0.01112944
 7103.25000,  0.01146663
 7103.50000,  0.01155271
 7103.75000,  0.01187284
 7104.00000,  0.01206840
 7104.25000,  0.01220124
 7104.50000,  0.01249805
 7104.75000,  0.01269623
 7105.00000,  0.01296074
 7105.25000,  0.01324428
 7105.50000,  0.01359506
 7105.75000,  0.01379959
 7106.00000,  0.01397747
 7106.25000,  0.01445692
 7106.50000,  0.01482997
 7106.75000,  0.01504698
 7107.00000,  0.01541111
 7107.25000,  0.01585029
 7107.50000,  0.01621192
 7107.75000,  0.01666982
 7108.00000,  0.01701627
 7108.25000,  0.01758552
 7108.50000,  0.01810230
 7108.75000,  0.01877369
 7109.00000,  0.01938802
 7109.25000,  0.02023740
 7109.50000,  0.02106149
 7109.75000,  0.02219667
 7110.00000,  0.02335542
 7110.25000,  0.02480294
 7110.50000,  0.02640646
 7110.75000,  0.02868756
 7111.00000,  0.03162360
 7111.25000,  0.03479794
 7111.50000,  0.03876279
 7111.75000,  0.04324354
 7112.00000,  0.04808084
 7112.25000,  0.05281523
 7112.50000,  0.05729179
 7112.75000,  0.06153838
 7113.00000,  0.06491054
 7113.25000,  0.06667568
 7113.50000,  0.06768152
 7113.75000,  0.06749854
 7114.00000,  0.06652936
 7114.25000,  0.06486939
 7114.50000,  0.06235512
 7114.75000,  0.06010279
 7115.00000,  0.05739234
 7115.25000,  0.05576479
 7115.50000,  0.05428355
 7115.75000,  0.05382994
 7116.00000,  0.05417520
 7116.25000,  0.05489603
 7116.50000,  0.05639240
 7116.75000,  0.05819611
 7117.00000,  0.06023015
 7117.25000,  0.06263492
 7117.50000,  0.06581633
 7117.75000,  0.06873126
 7118.00000,  0.07269009
 7118.25000,  0.07656481
 7118.50000,  0.08168672
 7118.75000,  0.08708855
 7119.00000,  0.09394307
 7119.25000,  0.10121342
 7119.50000,  0.11071679
 7119.75000,  0.12049754
 7120.00000,  0.13244857
 7120.25000,  0.14587736
 7120.50000,  0.16133412
 7120.75000,  0.17831974
 7121.00000,  0.19788763
 7121.25000,  0.21881223
 7121.50000,  0.24321628
 7121.75000,  0.26910007
 7122.00000,  0.29565346
 7122.25000,  0.32515048
 7122.50000,  0.35700741
 7122.75000,  0.39003965
 7123.00000,  0.42111351
 7123.25000,  0.45467108
 7123.50000,  0.48619422
 7123.75000,  0.51868505
 7124.00000,  0.54765400
 7124.25000,  0.57913785
 7124.50000,  0.60767091
 7124.75000,  0.64010104
 7125.00000,  0.67029467
 7125.25000,  0.70554675
 7125.50000,  0.73910662
 7125.75000,  0.77904935
 7126.00000,  0.81525725
 7126.25000,  0.85829376
 7126.50000,  0.89826705
 7126.75000,  0.93999968
 7127.00000,  0.97483889
 7127.25000,  1.01495368
 7127.50000,  1.04715848
 7127.75000,  1.07898877
 7128.00000,  1.10290667
 7128.25000,  1.12773329
 7128.50000,  1.14648206
 7128.75000,  1.16561770
 7129.00000,  1.18050775
 7129.25000,  1.19704492
 7129.50000,  1.21054836
 7129.75000,  1.22518395
 7130.00000,  1.23872089
 7130.25000,  1.25227618
 7130.50000,  1.26679101
 7130.75000,  1.27960495
 7131.00000,  1.29136896
 7131.25000,  1.30363963
 7131.50000,  1.31279540
 7131.75000,  1.32087877
 7132.00000,  1.32601996
 7132.25000,  1.32881789
 7132.50000,  1.32950610
 7132.75000,  1.32768024
 7133.00000,  1.32351602
 7133.25000,  1.31811327
 7133.50000,  1.31111747
 7133.75000,  1.30257373
 7134.00000,  1.29346638
 7134.25000,  1.28368071
 7134.50000,  1.27275584
 7134.75000,  1.26224179
 7135.00000,  1.25142182
 7135.25000,  1.24061121
 7135.50000,  1.23055985
 7135.75000,  1.22180359
 7136.00000,  1.21233845
 7136.25000,  1.20444167
 7136.50000,  1.19641737
 7136.75000,  1.18979678
 7137.00000,  1.18368816
 7137.25000,  1.17718185
 7137.50000,  1.17176098
 7137.75000,  1.16633928
 7138.00000,  1.16059279
 7138.25000,  1.15565148
 7138.50000,  1.15005770
 7138.75000,  1.14550462
 7139.00000,  1.14002951
 7139.25000,  1.13551872
 7139.50000,  1.13106073
 7139.75000,  1.12655390
 7140.00000,  1.12153317
 7140.25000,  1.11756652
 7140.50000,  1.11317584
 7140.75000,  1.10899400
 7141.00000,  1.10440489
 7141.25000,  1.10078800
 7141.50000,  1.09680038
 7141.75000,  1.09397577
 7142.00000,  1.09031888
 7142.25000,  1.08753027
 7142.50000,  1.08466007
 7142.75000,  1.08334595
 7143.00000,  1.08038924
 7143.25000,  1.08014066
 7143.50000,  1.07873412
 7143.75000,  1.07782916
 7144.00000,  1.07732383
 7144.25000,  1.07721693
 7144.50000,  1.07658107
 7144.75000,  1.07666014
 7145.00000,  1.07625446
 7145.25000,  1.07528218
 7145.50000,  1.07401195
 7145.75000,  1.07235483
 7146.00000,  1.07063768
 7146.25000,  1.06846764
 7146.50000,  1.06493996
 7146.75000,  1.06077869
 7147.00000,  1.05665632
 7147.25000,  1.05103056
 7147.50000,  1.04529755
 7147.75000,  1.03928457
 7148.00000,  1.03189968
 7148.25000,  1.02559183
 7148.50000,  1.01835695
 7148.75000,  1.01074676
 7149.00000,  1.00342129
 7149.25000,  0.99626802
 7149.50000,  0.98823095
 7149.75000,  0.98005219
 7150.00000,  0.97313867
 7150.25000,  0.96521645
 7150.50000,  0.95803971
 7150.75000,  0.95098406
 7151.00000,  0.94402263
 7151.25000,  0.93722382
 7151.50000,  0.93124337
 7151.75000,  0.92516846
 7152.00000,  0.91958523
 7152.25000,  0.91386620
 7152.50000,  0.90906228
 7152.75000,  0.90352471
 7153.00000,  0.89906729
 7153.25000,  0.89375252
 7153.50000,  0.88954815
 7153.75000,  0.88507079
 7154.00000,  0.88099587
 7154.25000,  0.87646526
 7154.50000,  0.87287811
 7154.75000,  0.86905482
 7155.00000,  0.86550866
 7155.25000,  0.86179864
 7155.50000,  0.85882263
 7155.75000,  0.85511057
 7156.00000,  0.85200951
 7156.25000,  0.84911520
 7156.50000,  0.84628537
 7156.75000,  0.84364201
 7157.00000,  0.84098345
 7157.25000,  0.83845167
 7157.50000,  0.83626422
 7157.75000,  0.83381586
 7158.00000,  0.83244246
 7158.25000,  0.83025594
 7158.50000,  0.82888978
 7158.75000,  0.82704986
 7159.00000,  0.82580027
 7159.25000,  0.82453459
 7159.50000,  0.82384755
 7159.75000,  0.82285239
 7160.00000,  0.82177424
 7161.09473,  0.82141221
 7162.20947,  0.82440209
 7163.34326,  0.83141923
 7164.49707,  0.84236499
 7165.67041,  0.85719023
 7166.86377,  0.87450935
 7168.07617,  0.89395391
 7169.30859,  0.91405686
 7170.56006,  0.93451375
 7171.83154,  0.95500219
 7173.12305,  0.97586013
 7174.43359,  0.99651222
 7175.76367,  1.01288332
 7177.11377,  1.02377294
 7178.48340,  1.03202398
 7179.87256,  1.03839648
 7181.28174,  1.04219864
 7182.70996,  1.04370337
 7184.15820,  1.04282629
 7185.62598,  1.04173239
 7187.11328,  1.04013939
 7188.62012,  1.03937972
 7190.14648,  1.03791212
 7191.69287,  1.03725884
 7193.25879,  1.03647703
 7194.84424,  1.03564296
 7196.44922,  1.03389188
 7198.07373,  1.03109017
 7199.71826,  1.02658716
 7201.38184,  1.02088809
 7203.06543,  1.01488520
 7204.76855,  1.00824479
 7206.49170,  1.00150727
 7208.23389,  0.99456286
 7209.99609,  0.98747663
 7211.77783,  0.98148746
 7213.57910,  0.97689232
 7215.39990,  0.97339696
 7217.24023,  0.97200323
 7219.10059,  0.97271000
 7220.98047,  0.97447360
 7222.87988,  0.97628393
 7224.79883,  0.97761540
 7226.73730,  0.97752008
 7228.69580,  0.97635927
 7230.67334,  0.97447178
 7232.67090,  0.97257701
 7234.68799,  0.97011393
 7236.72510,  0.96771018
 7238.78125,  0.96686572
 7240.85742,  0.96700841
 7242.95312,  0.96817278
 7245.06836,  0.97088521
 7247.20312,  0.97493273
 7249.35742,  0.97996874
 7251.53174,  0.98634823
 7253.72559,  0.99310271
 7255.93896,  1.00006292
 7258.17188,  1.00639595
 7260.42432,  1.01180633
 7262.69678,  1.01636331
 7264.98828,  1.01942418
 7267.29980,  1.02164004
 7269.63086,  1.02253981
 7271.98193,  1.02362412
 7274.35205,  1.02354720
 7276.74219,  1.02374578
 7279.15186,  1.02267880
 7281.58105,  1.02175106
 7284.02979,  1.01975144
 7286.49805,  1.01693110
 7288.98633,  1.01349476
 7291.49414,  1.00889735
 7294.02148,  1.00475293
 7296.56836,  0.99956504
 7299.13477,  0.99502103
 7301.72119,  0.99136505
 7304.32666,  0.98845239
 7306.95215,  0.98682311
 7309.59717,  0.98644932
 7312.26221,  0.98702864
 7314.94629,  0.98876551
 7317.65039,  0.99079416
 7320.37354,  0.99307350
 7323.11670,  0.99539361
 7325.87988,  0.99755386
 7328.66211,  0.99874212
 7331.46436,  0.99951322
 7334.28564,  0.99982200
 7337.12695,  1.00020442
 7339.98828,  0.99938347
 7342.86865,  0.99933565
 7345.76855,  0.99850299
 7348.68848,  0.99803468
 7351.62793,  0.99754229
 7354.58691,  0.99670908
 7357.56543,  0.99646219
 7360.56396,  0.99633351
 7363.58154,  0.99633129
 7366.61914,  0.99664364
 7369.67627,  0.99743435
 7372.75293,  0.99902634
 7375.84961,  1.00050881
 7378.96533,  1.00285315
 7382.10107,  1.00468909
 7385.25635,  1.00679042
 7388.43115,  1.00801223
 7391.62598,  1.00897924
 7394.83984,  1.00976400
 7398.07373,  1.00964118
 7401.32715,  1.00886861
 7404.60010,  1.00751943
 7407.89258,  1.00549890
 7411.20459,  1.00348968
 7414.53662,  1.00073878
 7417.88818,  0.99862425
 7421.25928,  0.99670333
 7424.64990,  0.99506870
 7428.06006,  0.99384220
 7431.49023,  0.99289565
 7434.93994,  0.99254350
 7438.40918,  0.99238552
 7441.89795,  0.99281671
 7445.40625,  0.99294205
 7448.93457,  0.99378218
 7452.48193,  0.99447839
 7456.04932,  0.99543379
 7459.63623,  0.99602305
 7463.24316,  0.99751782
 7466.86914,  0.99874568
 7470.51514,  0.99988731
 7474.18018,  1.00114357
 7477.86523,  1.00209670
 7481.57031,  1.00247186
 7485.29443,  1.00250049
 7489.03857,  1.00263171
 7492.80176,  1.00228876
 7496.58496,  1.00171708
 7500.38770,  1.00087441
 7504.21045,  1.00025773
 7508.05225,  0.99908471
 7511.91406,  0.99866109
 7515.79541,  0.99841925
 7519.69629,  0.99823781
 7523.61670,  0.99864185
 7527.55713,  0.99885588
 7531.51660,  0.99938941
 7535.49609,  0.99981286
 7539.49512,  0.99987230
 7543.51367,  0.99989722
 7547.55176,  1.00042977
 7551.60986,  1.00051307
 7555.68750,  1.00048733
 7559.78467,  1.00015360
 7563.90137,  0.99983927
 7568.03760,  0.99958199
 7572.19385,  0.99922638
 7576.36914,  0.99886192
 7580.56445,  0.99870558
 7584.77930,  0.99830834
 7589.01367,  0.99773423
 7593.26807,  0.99768138
 7597.54199,  0.99737909
 7601.83496,  0.99728970
 7606.14795,  0.99712518
 7610.48047,  0.99738599
 7614.83301,  0.99733787
 7619.20459,  0.99812560
 7623.59619,  0.99870996
 7628.00732,  0.99942129
 7632.43799,  0.99991236
 7636.88818,  1.00031945
 7641.35840,  1.00091550
 7645.84814,  1.00150448
 7650.35742,  1.00200443
 7654.88623,  1.00212314
 7659.43457,  1.00245576
 7664.00244,  1.00320997
 7668.59033,  1.00156026
 7673.19775,  1.00088676
 7677.82471,  1.00110063
 7682.47119,  1.00156280
 7687.13721,  1.00051661
 7691.82324,  1.00049892
 7696.52832,  1.00025688
 7701.25342,  1.00009129
 7705.99805,  0.99988041
 7710.76270,  0.99981947
 7715.54639,  1.00005039
 7720.35010,  1.00045212
 7725.17334,  0.99960582
 7730.01611,  1.00009005
 7734.87842,  0.99934863
 7739.76025,  0.99963913
 7744.66211,  1.00018752
 7749.58350,  1.00012468
 7754.52441,  1.00041426
 7759.48486,  1.00028820
 7764.46484,  1.00032888
 7769.46484,  1.00022709
 7774.48438,  1.00042622
 7779.52344,  1.00026234
 7784.58203,  1.00023323
 7789.66016,  0.99986708
 7794.75781,  1.00006391
 7799.87549,  1.00029411
 7805.01270,  1.00034949
 7810.16943,  1.00027547
 7815.34570,  1.00015733
 7820.54199,  1.00044613
 7825.75732,  1.00039786
 7830.99268,  1.00030037
 7836.24756,  1.00021424
 7841.52197,  1.00051408
 7846.81592,  1.00058496
 7852.12988,  1.00056488
 7857.46338,  1.00087892
 7862.81641,  1.00077251
 7868.18896,  1.00077418
 7873.58105,  1.00084190
 7878.99268,  1.00062533
 7884.42432,  1.00044734
 7889.87549,  1.00013150
 7895.34619,  1.00023133
 7900.83643,  1.00056359
 7906.34668,  1.00021646
 7911.87598,  1.00053546
 7917.42529,  1.00057571
 7922.99414,  1.00085155
 7928.58252,  1.00053034
 7934.19043,  1.00024612
 7939.81836,  1.00026577
 7945.46582,  1.00025590
 7951.13281,  1.00021881
 7956.81934,  1.00027310
 7962.52539,  1.00051429
 7968.25098,  1.00077186
 7973.99658,  1.00073676
 7979.76172,  1.00092198
 7985.54639,  1.00098585
 7991.35059,  1.00085398
 7997.17480,  1.00111040
 8003.01807,  1.00097418
 8008.88135,  1.00111520
 8014.76416,  1.00106850
 8020.66650,  1.00099411
 8026.58838,  1.00085418
 8032.53027,  1.00034285
 8038.49170,  1.00016821
 8044.47217,  1.00009912
 8050.47314,  0.99968921
 8056.49316,  0.99924813
 8062.53271,  0.99882558
 8068.59229,  0.99865312
 8074.67139,  0.99838323
 8080.77002,  0.99795418
 8086.88818,  0.99766018
 8093.02588,  0.99712052
 8099.18359,  0.99706278
 8105.36084,  0.99652002
