#saved Fri Feb 13 17:51:08 2026
#saving x array=energy, y array=flat
#Green Rust - Sulfate: Green Rust - Sulfate
#------------------------------------------
# energy, Green Rust - Sulfate
 6880.00000,  9.10982e-4
 6890.23828,  7.91096e-4
 6900.47607,  6.01621e-4
 6910.71436,  4.46966e-4
 6920.95215,  3.03102e-4
 6931.19043,  1.87628e-4
 6941.42871,  7.10064e-5
 6951.66650, -1.45221e-4
 6961.90479, -2.37574e-4
 6972.14307, -3.41138e-4
 6982.38086, -3.09010e-4
 6992.61914, -3.19039e-4
 7002.85693, -3.33364e-4
 7013.09521, -2.66656e-4
 7023.33350, -1.46519e-4
 7033.57129,  2.96515e-5
 7043.80957,  2.80046e-4
 7054.04785,  7.80121e-4
 7064.28564,  0.00152650
 7074.52393,  0.00270672
 7084.76172,  0.00479593
 7095.00000,  0.00891186
 7095.25000,  0.00906934
 7095.50000,  0.00920186
 7095.75000,  0.00932745
 7096.00000,  0.00945004
 7096.25000,  0.00963649
 7096.50000,  0.00979637
 7096.75000,  0.00992491
 7097.00000,  0.01015725
 7097.25000,  0.01033878
 7097.50000,  0.01052484
 7097.75000,  0.01067485
 7098.00000,  0.01084872
 7098.25000,  0.01107133
 7098.50000,  0.01126206
 7098.75000,  0.01144944
 7099.00000,  0.01174729
 7099.25000,  0.01190363
 7099.50000,  0.01215885
 7099.75000,  0.01235530
 7100.00000,  0.01257479
 7100.25000,  0.01283498
 7100.50000,  0.01310812
 7100.75000,  0.01331835
 7101.00000,  0.01370150
 7101.25000,  0.01397332
 7101.50000,  0.01426331
 7101.75000,  0.01452583
 7102.00000,  0.01482675
 7102.25000,  0.01520129
 7102.50000,  0.01546161
 7102.75000,  0.01579378
 7103.00000,  0.01620515
 7103.25000,  0.01650102
 7103.50000,  0.01688914
 7103.75000,  0.01729077
 7104.00000,  0.01769478
 7104.25000,  0.01814016
 7104.50000,  0.01861030
 7104.75000,  0.01901271
 7105.00000,  0.01945205
 7105.25000,  0.02004388
 7105.50000,  0.02053825
 7105.75000,  0.02114250
 7106.00000,  0.02174580
 7106.25000,  0.02243580
 7106.50000,  0.02300742
 7106.75000,  0.02369608
 7107.00000,  0.02443475
 7107.25000,  0.02545193
 7107.50000,  0.02626037
 7107.75000,  0.02731611
 7108.00000,  0.02842595
 7108.25000,  0.02975522
 7108.50000,  0.03105944
 7108.75000,  0.03278028
 7109.00000,  0.03463549
 7109.25000,  0.03704184
 7109.50000,  0.03933684
 7109.75000,  0.04233054
 7110.00000,  0.04521297
 7110.25000,  0.04866318
 7110.50000,  0.05165562
 7110.75000,  0.05506540
 7111.00000,  0.05812996
 7111.25000,  0.06114586
 7111.50000,  0.06356447
 7111.75000,  0.06625417
 7112.00000,  0.06856918
 7112.25000,  0.07104307
 7112.50000,  0.07326075
 7112.75000,  0.07574447
 7113.00000,  0.07826162
 7113.25000,  0.08092150
 7113.50000,  0.08352590
 7113.75000,  0.08698289
 7114.00000,  0.09064418
 7114.25000,  0.09503027
 7114.50000,  0.10024414
 7114.75000,  0.10651775
 7115.00000,  0.11451558
 7115.25000,  0.12307693
 7115.50000,  0.13396544
 7115.75000,  0.14665490
 7116.00000,  0.16228199
 7116.25000,  0.17835108
 7116.50000,  0.19895592
 7116.75000,  0.22102288
 7117.00000,  0.24788524
 7117.25000,  0.27255746
 7117.50000,  0.30477059
 7117.75000,  0.33669340
 7118.00000,  0.37226268
 7118.25000,  0.40551765
 7118.50000,  0.44523912
 7118.75000,  0.48146146
 7119.00000,  0.52088808
 7119.25000,  0.55382256
 7119.50000,  0.59171576
 7119.75000,  0.62375795
 7120.00000,  0.65665759
 7120.25000,  0.68406562
 7120.50000,  0.71344714
 7120.75000,  0.73872821
 7121.00000,  0.76606482
 7121.25000,  0.78860466
 7121.50000,  0.81542069
 7121.75000,  0.83939983
 7122.00000,  0.86441256
 7122.25000,  0.88705405
 7122.50000,  0.91313449
 7122.75000,  0.93624990
 7123.00000,  0.96009409
 7123.25000,  0.98143700
 7123.50000,  1.00540769
 7123.75000,  1.02750956
 7124.00000,  1.04785804
 7124.25000,  1.06669855
 7124.50000,  1.08515492
 7124.75000,  1.10156520
 7125.00000,  1.11596581
 7125.25000,  1.12891909
 7125.50000,  1.14043959
 7125.75000,  1.15171143
 7126.00000,  1.16141228
 7126.25000,  1.17049598
 7126.50000,  1.17963196
 7126.75000,  1.18803417
 7127.00000,  1.19493008
 7127.25000,  1.20232588
 7127.50000,  1.20873821
 7127.75000,  1.21353978
 7128.00000,  1.21695060
 7128.25000,  1.21866485
 7128.50000,  1.21860863
 7128.75000,  1.21608341
 7129.00000,  1.21260611
 7129.25000,  1.20611645
 7129.50000,  1.19888670
 7129.75000,  1.18882257
 7130.00000,  1.18058020
 7130.25000,  1.16944294
 7130.50000,  1.15895812
 7130.75000,  1.14761636
 7131.00000,  1.13846126
 7131.25000,  1.12745263
 7131.50000,  1.11805997
 7131.75000,  1.10827660
 7132.00000,  1.10005204
 7132.25000,  1.09119220
 7132.50000,  1.08319894
 7132.75000,  1.07559374
 7133.00000,  1.06842636
 7133.25000,  1.06149675
 7133.50000,  1.05518556
 7133.75000,  1.04935362
 7134.00000,  1.04429325
 7134.25000,  1.03933756
 7134.50000,  1.03430080
 7134.75000,  1.03048480
 7135.00000,  1.02724282
 7135.25000,  1.02374311
 7135.50000,  1.02147096
 7135.75000,  1.01888869
 7136.00000,  1.01697533
 7136.25000,  1.01490272
 7136.50000,  1.01342598
 7136.75000,  1.01223440
 7137.00000,  1.01119296
 7137.25000,  1.01089207
 7137.50000,  1.01040984
 7137.75000,  1.01060633
 7138.00000,  1.00972658
 7138.25000,  1.00974089
 7138.50000,  1.01009776
 7138.75000,  1.00971562
 7139.00000,  1.00994439
 7139.25000,  1.00983652
 7139.50000,  1.00998278
 7139.75000,  1.00940364
 7140.00000,  1.00908684
 7140.25000,  1.00858025
 7140.50000,  1.00710211
 7140.75000,  1.00600211
 7141.00000,  1.00457181
 7141.25000,  1.00194413
 7141.50000,  0.99910408
 7141.75000,  0.99751057
 7142.00000,  0.99442007
 7142.25000,  0.99129947
 7142.50000,  0.98761700
 7142.75000,  0.98433845
 7143.00000,  0.98148006
 7143.25000,  0.97780316
 7143.50000,  0.97427713
 7143.75000,  0.97098564
 7144.00000,  0.96714374
 7144.25000,  0.96374044
 7144.50000,  0.95957490
 7144.75000,  0.95637718
 7145.00000,  0.95263562
 7145.25000,  0.94889917
 7145.50000,  0.94491974
 7145.75000,  0.94117216
 7146.00000,  0.93766540
 7146.25000,  0.93397540
 7146.50000,  0.93044939
 7146.75000,  0.92752271
 7147.00000,  0.92369885
 7147.25000,  0.92093700
 7147.50000,  0.91775006
 7147.75000,  0.91576585
 7148.00000,  0.91233060
 7148.25000,  0.90959167
 7148.50000,  0.90771449
 7148.75000,  0.90535984
 7149.00000,  0.90250986
 7149.25000,  0.90051166
 7149.50000,  0.89847902
 7149.75000,  0.89648009
 7150.00000,  0.89506682
 7150.25000,  0.89358424
 7150.50000,  0.89195470
 7150.75000,  0.89061540
 7151.00000,  0.88930694
 7151.25000,  0.88811945
 7151.50000,  0.88728228
 7151.75000,  0.88658763
 7152.00000,  0.88596529
 7152.25000,  0.88511657
 7152.50000,  0.88447327
 7152.75000,  0.88463932
 7153.00000,  0.88411619
 7153.25000,  0.88421393
 7153.50000,  0.88447090
 7153.75000,  0.88455967
 7154.00000,  0.88500557
 7154.25000,  0.88523767
 7154.50000,  0.88565150
 7154.75000,  0.88615406
 7155.00000,  0.88689301
 7155.25000,  0.88841894
 7155.50000,  0.88903516
 7155.75000,  0.89029022
 7156.00000,  0.89169155
 7156.25000,  0.89348129
 7156.50000,  0.89498829
 7156.75000,  0.89648597
 7157.00000,  0.89828463
 7157.25000,  0.89998783
 7157.50000,  0.90169377
 7157.75000,  0.90363007
 7158.00000,  0.90573903
 7158.25000,  0.90814292
 7158.50000,  0.90961097
 7158.75000,  0.91199962
 7159.00000,  0.91411563
 7159.25000,  0.91616346
 7159.50000,  0.91872987
 7159.75000,  0.92057040
 7160.00000,  0.92270987
 7161.09473,  0.93411502
 7162.20947,  0.94615690
 7163.34326,  0.95806051
 7164.49707,  0.97008855
 7165.67041,  0.98188749
 7166.86377,  0.99355897
 7168.07617,  1.00539145
 7169.30859,  1.01660846
 7170.56006,  1.02699724
 7171.83154,  1.03435837
 7173.12305,  1.03779275
 7174.43359,  1.03824094
 7175.76367,  1.03658173
 7177.11377,  1.03157608
 7178.48340,  1.02606431
 7179.87256,  1.02017494
 7181.28174,  1.01439907
 7182.70996,  1.00969490
 7184.15820,  1.00514895
 7185.62598,  1.00099682
 7187.11328,  0.99734483
 7188.62012,  0.99450703
 7190.14648,  0.99240031
 7191.69287,  0.99094089
 7193.25879,  0.99040136
 7194.84424,  0.99059835
 7196.44922,  0.99057775
 7198.07373,  0.99052144
 7199.71826,  0.99028262
 7201.38184,  0.98949332
 7203.06543,  0.98884614
 7204.76855,  0.98787765
 7206.49170,  0.98708275
 7208.23389,  0.98673664
 7209.99609,  0.98688338
 7211.77783,  0.98646486
 7213.57910,  0.98537925
 7215.39990,  0.98373800
 7217.24023,  0.98063404
 7219.10059,  0.97705594
 7220.98047,  0.97328956
 7222.87988,  0.96973856
 7224.79883,  0.96767300
 7226.73730,  0.96751827
 7228.69580,  0.96976162
 7230.67334,  0.97384973
 7232.67090,  0.97914877
 7234.68799,  0.98556690
 7236.72510,  0.99166408
 7238.78125,  0.99718862
 7240.85742,  1.00194274
 7242.95312,  1.00551267
 7245.06836,  1.00809391
 7247.20312,  1.01038377
 7249.35742,  1.01216332
 7251.53174,  1.01494933
 7253.72559,  1.01521769
 7255.93896,  1.01682775
 7258.17188,  1.01826890
 7260.42432,  1.01711222
 7262.69678,  1.01373192
 7264.98828,  1.01218213
 7267.29980,  1.00848219
 7269.63086,  1.00395668
 7271.98193,  0.99936500
 7274.35205,  0.99560520
 7276.74219,  0.99283749
 7279.15186,  0.99086485
 7281.58105,  0.99033566
 7284.02979,  0.99091041
 7286.49805,  0.99153470
 7288.98633,  0.99253846
 7291.49414,  0.99318406
 7294.02148,  0.99388233
 7296.56836,  0.99496462
 7299.13477,  0.99622247
 7301.72119,  0.99709543
 7304.32666,  0.99834956
 7306.95215,  0.99985341
 7309.59717,  1.00111933
 7312.26221,  1.00161993
 7314.94629,  1.00265759
 7317.65039,  1.00295051
 7320.37354,  1.00191865
 7323.11670,  1.00004745
 7325.87988,  0.99741734
 7328.66211,  0.99518935
 7331.46436,  0.99431756
 7334.28564,  0.99469986
 7337.12695,  0.99581150
 7339.98828,  0.99632986
 7342.86865,  0.99643775
 7345.76855,  0.99683882
 7348.68848,  0.99697129
 7351.62793,  0.99756244
 7354.58691,  0.99833290
 7357.56543,  0.99954501
 7360.56396,  1.00135308
 7363.58154,  1.00218333
 7366.61914,  1.00365900
 7369.67627,  1.00503664
 7372.75293,  1.00608642
 7375.84961,  1.00692183
 7378.96533,  1.00701606
 7382.10107,  1.00588648
 7385.25635,  1.00403750
 7388.43115,  1.00137023
 7391.62598,  0.99894282
 7394.83984,  0.99618503
 7398.07373,  0.99461242
 7401.32715,  0.99459558
 7404.60010,  0.99464740
 7407.89258,  0.99492899
 7411.20459,  0.99483164
 7414.53662,  0.99426915
 7417.88818,  0.99407453
 7421.25928,  0.99418065
 7424.64990,  0.99507283
 7428.06006,  0.99580874
 7431.49023,  0.99692405
 7434.93994,  0.99863490
 7438.40918,  0.99992198
 7441.89795,  1.00149188
 7445.40625,  1.00260594
 7448.93457,  1.00408976
 7452.48193,  1.00394116
 7456.04932,  1.00277986
 7459.63623,  1.00156623
 7463.24316,  1.00039345
 7466.86914,  0.99907170
 7470.51514,  0.99812196
 7474.18018,  0.99715614
 7477.86523,  0.99744925
 7481.57031,  0.99818430
 7485.29443,  0.99823934
 7489.03857,  0.99879007
 7492.80176,  0.99874663
 7496.58496,  0.99783395
 7500.38770,  0.99742339
 7504.21045,  0.99777166
 7508.05225,  0.99796688
 7511.91406,  0.99799479
 7515.79541,  0.99877507
 7519.69629,  1.00019786
 7523.61670,  1.00127319
 7527.55713,  1.00180144
 7531.51660,  1.00168433
 7535.49609,  1.00143376
 7539.49512,  1.00118266
 7543.51367,  1.00011835
 7547.55176,  0.99949961
 7551.60986,  0.99921859
 7555.68750,  0.99908989
 7559.78467,  0.99872777
 7563.90137,  0.99832879
 7568.03760,  0.99807481
 7572.19385,  0.99815424
 7576.36914,  0.99842837
 7580.56445,  0.99871054
 7584.77930,  0.99885401
 7589.01367,  0.99892462
 7593.26807,  0.99997035
 7597.54199,  1.00051543
 7601.83496,  1.00130443
 7606.14795,  1.00199601
 7610.48047,  1.00209498
 7614.83301,  1.00277824
 7619.20459,  1.00266994
 7623.59619,  1.00351265
 7628.00732,  0.99855420
 7632.43799,  1.00190050
 7636.88818,  1.00042758
 7641.35840,  1.00030615
 7645.84814,  1.00061814
 7650.35742,  1.00001272
 7654.88623,  1.00011121
 7659.43457,  0.99968050
 7664.00244,  1.00023457
 7668.59033,  0.99980690
 7673.19775,  1.00028906
 7677.82471,  1.00008781
 7682.47119,  1.00014597
 7687.13721,  1.00067155
 7691.82324,  1.00141354
 7696.52832,  1.00115572
 7701.25342,  1.00128800
 7705.99805,  1.00220988
 7710.76270,  1.00059237
 7715.54639,  1.00128545
 7720.35010,  1.00099760
 7725.17334,  1.00112096
 7730.01611,  1.00084401
 7734.87842,  1.00118860
 7739.76025,  1.00089773
 7744.66211,  1.00059334
 7749.58350,  1.00018588
 7754.52441,  1.00034074
 7759.48486,  1.00050104
 7764.46484,  1.00039562
 7769.46484,  1.00018589
 7774.48438,  1.00029499
 7779.52344,  1.00027319
 7784.58203,  1.00091758
 7789.66016,  1.00116739
 7794.75781,  1.00073441
 7799.87549,  1.00076542
 7805.01270,  1.00083509
 7810.16943,  1.00080776
 7815.34570,  1.00037814
 7820.54199,  1.00018379
 7825.75732,  1.00008889
 7830.99268,  1.00093961
 7836.24756,  1.00140319
 7841.52197,  1.00116480
 7846.81592,  1.00132624
 7852.12988,  1.00158232
 7857.46338,  1.00036787
 7862.81641,  1.00103619
 7868.18896,  1.00112864
 7873.58105,  1.00100049
 7878.99268,  1.00086726
 7884.42432,  1.00099825
 7889.87549,  1.00018258
 7895.34619,  1.00054575
 7900.83643,  1.00056684
 7906.34668,  1.00089724
 7911.87598,  1.00086746
 7917.42529,  1.00118600
 7922.99414,  1.00153737
 7928.58252,  1.00110014
 7934.19043,  1.00066730
 7939.81836,  1.00167987
 7945.46582,  1.00086274
 7951.13281,  1.00030370
 7956.81934,  0.99972838
 7962.52539,  1.00068669
 7968.25098,  1.00017779
 7973.99658,  1.00025957
 7979.76172,  1.00059491
 7985.54639,  1.00006373
 7991.35059,  1.00016855
 7997.17480,  0.99996780
 8003.01807,  0.99947309
 8008.88135,  1.00012930
 8014.76416,  0.99998250
 8020.66650,  0.99917276
 8026.58838,  0.99926740
 8032.53027,  0.99981306
 8038.49170,  0.99960700
 8044.47217,  0.99949323
 8050.47314,  0.99928052
 8056.49316,  0.99868907
 8062.53271,  0.99850620
 8068.59229,  0.99864178
 8074.67139,  0.99780472
 8080.77002,  0.99766382
 8086.88818,  0.99740301
 8093.02588,  0.99693759
 8099.18359,  0.99657598
 8105.36084,  0.99598525
