#saved Fri Feb 13 17:51:08 2026
#saving x array=energy, y array=flat
#Ilmenite: Ilmenite
#------------------------------------------
# energy, Ilmenite
 6880.00000,  2.03770e-4
 6890.23828,  1.42438e-4
 6900.47607,  5.40333e-5
 6910.71436,  4.05442e-5
 6920.95215,  4.90799e-5
 6931.19043,  2.25830e-5
 6941.42871, -1.30061e-5
 6951.66650, -4.24979e-5
 6961.90479, -5.61022e-5
 6972.14307, -4.47747e-5
 6982.38086,  1.38192e-5
 6992.61914,  7.08987e-5
 7002.85693,  2.07050e-4
 7013.09521,  3.65496e-4
 7023.33350,  5.52703e-4
 7033.57129,  8.34492e-4
 7043.80957,  0.00122908
 7054.04785,  0.00176897
 7064.28564,  0.00254488
 7074.52393,  0.00373588
 7084.76172,  0.00562565
 7095.00000,  0.00914686
 7095.25000,  0.00928683
 7095.50000,  0.00936607
 7095.75000,  0.00952068
 7096.00000,  0.00962152
 7096.25000,  0.00973850
 7096.50000,  0.00983489
 7096.75000,  0.01003104
 7097.00000,  0.01013565
 7097.25000,  0.01031677
 7097.50000,  0.01044280
 7097.75000,  0.01060598
 7098.00000,  0.01073381
 7098.25000,  0.01092515
 7098.50000,  0.01107820
 7098.75000,  0.01126300
 7099.00000,  0.01138845
 7099.25000,  0.01160016
 7099.50000,  0.01175930
 7099.75000,  0.01192877
 7100.00000,  0.01210808
 7100.25000,  0.01233261
 7100.50000,  0.01252583
 7100.75000,  0.01274514
 7101.00000,  0.01292861
 7101.25000,  0.01314882
 7101.50000,  0.01335552
 7101.75000,  0.01358238
 7102.00000,  0.01381100
 7102.25000,  0.01404850
 7102.50000,  0.01428765
 7102.75000,  0.01454102
 7103.00000,  0.01479035
 7103.25000,  0.01507972
 7103.50000,  0.01537624
 7103.75000,  0.01563843
 7104.00000,  0.01593625
 7104.25000,  0.01625796
 7104.50000,  0.01660370
 7104.75000,  0.01690634
 7105.00000,  0.01729473
 7105.25000,  0.01762446
 7105.50000,  0.01803759
 7105.75000,  0.01843255
 7106.00000,  0.01888928
 7106.25000,  0.01930359
 7106.50000,  0.01978479
 7106.75000,  0.02019341
 7107.00000,  0.02080778
 7107.25000,  0.02135596
 7107.50000,  0.02199738
 7107.75000,  0.02254880
 7108.00000,  0.02334860
 7108.25000,  0.02402455
 7108.50000,  0.02491558
 7108.75000,  0.02571515
 7109.00000,  0.02683816
 7109.25000,  0.02797603
 7109.50000,  0.02920300
 7109.75000,  0.03058877
 7110.00000,  0.03239248
 7110.25000,  0.03440835
 7110.50000,  0.03675047
 7110.75000,  0.03950370
 7111.00000,  0.04286273
 7111.25000,  0.04710566
 7111.50000,  0.05162589
 7111.75000,  0.05701490
 7112.00000,  0.06322569
 7112.25000,  0.07025403
 7112.50000,  0.07655592
 7112.75000,  0.08382929
 7113.00000,  0.09032483
 7113.25000,  0.09661729
 7113.50000,  0.10124449
 7113.75000,  0.10576535
 7114.00000,  0.10910467
 7114.25000,  0.11186395
 7114.50000,  0.11330987
 7114.75000,  0.11404243
 7115.00000,  0.11413769
 7115.25000,  0.11431338
 7115.50000,  0.11496640
 7115.75000,  0.11634761
 7116.00000,  0.11808237
 7116.25000,  0.12063148
 7116.50000,  0.12320856
 7116.75000,  0.12671352
 7117.00000,  0.13045723
 7117.25000,  0.13483886
 7117.50000,  0.13913304
 7117.75000,  0.14499367
 7118.00000,  0.15106625
 7118.25000,  0.15846286
 7118.50000,  0.16617213
 7118.75000,  0.17641117
 7119.00000,  0.18735307
 7119.25000,  0.20038405
 7119.50000,  0.21489940
 7119.75000,  0.23244371
 7120.00000,  0.25195582
 7120.25000,  0.27296660
 7120.50000,  0.29606690
 7120.75000,  0.32191219
 7121.00000,  0.35094639
 7121.25000,  0.37974434
 7121.50000,  0.41109555
 7121.75000,  0.44536842
 7122.00000,  0.48064989
 7122.25000,  0.51355793
 7122.50000,  0.54864171
 7122.75000,  0.58358353
 7123.00000,  0.61837312
 7123.25000,  0.64778266
 7123.50000,  0.68039143
 7123.75000,  0.70948373
 7124.00000,  0.73920961
 7124.25000,  0.76407533
 7124.50000,  0.79202433
 7124.75000,  0.81733776
 7125.00000,  0.84464708
 7125.25000,  0.86782465
 7125.50000,  0.89440227
 7125.75000,  0.91854732
 7126.00000,  0.94455757
 7126.25000,  0.96603788
 7126.50000,  0.99079230
 7126.75000,  1.01225599
 7127.00000,  1.03377114
 7127.25000,  1.05165964
 7127.50000,  1.07107065
 7127.75000,  1.08780560
 7128.00000,  1.10393525
 7128.25000,  1.11771103
 7128.50000,  1.13163982
 7128.75000,  1.14297828
 7129.00000,  1.15341956
 7129.25000,  1.16120240
 7129.50000,  1.16861299
 7129.75000,  1.17435308
 7130.00000,  1.17919639
 7130.25000,  1.18284413
 7130.50000,  1.18608797
 7130.75000,  1.18895876
 7131.00000,  1.19180501
 7131.25000,  1.19454389
 7131.50000,  1.19728290
 7131.75000,  1.20001024
 7132.00000,  1.20265245
 7132.25000,  1.20466142
 7132.50000,  1.20628031
 7132.75000,  1.20713150
 7133.00000,  1.20715803
 7133.25000,  1.20658456
 7133.50000,  1.20472557
 7133.75000,  1.20184809
 7134.00000,  1.19834661
 7134.25000,  1.19395063
 7134.50000,  1.18910894
 7134.75000,  1.18312114
 7135.00000,  1.17770290
 7135.25000,  1.17171602
 7135.50000,  1.16600421
 7135.75000,  1.15959320
 7136.00000,  1.15442374
 7136.25000,  1.14903510
 7136.50000,  1.14394229
 7136.75000,  1.13854359
 7137.00000,  1.13448254
 7137.25000,  1.12944696
 7137.50000,  1.12500547
 7137.75000,  1.11987806
 7138.00000,  1.11571444
 7138.25000,  1.11008542
 7138.50000,  1.10517756
 7138.75000,  1.09930670
 7139.00000,  1.09432531
 7139.25000,  1.08811068
 7139.50000,  1.08259892
 7139.75000,  1.07631484
 7140.00000,  1.07117626
 7140.25000,  1.06526355
 7140.50000,  1.06008829
 7140.75000,  1.05480962
 7141.00000,  1.05029688
 7141.25000,  1.04541424
 7141.50000,  1.04118091
 7141.75000,  1.03701889
 7142.00000,  1.03352409
 7142.25000,  1.02997969
 7142.50000,  1.02700391
 7142.75000,  1.02430178
 7143.00000,  1.02197384
 7143.25000,  1.01970018
 7143.50000,  1.01810031
 7143.75000,  1.01640083
 7144.00000,  1.01555041
 7144.25000,  1.01457820
 7144.50000,  1.01385517
 7144.75000,  1.01330862
 7145.00000,  1.01306226
 7145.25000,  1.01301810
 7145.50000,  1.01271918
 7145.75000,  1.01247998
 7146.00000,  1.01231603
 7146.25000,  1.01197126
 7146.50000,  1.01152353
 7146.75000,  1.01080817
 7147.00000,  1.01011244
 7147.25000,  1.00896993
 7147.50000,  1.00742272
 7147.75000,  1.00589890
 7148.00000,  1.00394358
 7148.25000,  1.00144945
 7148.50000,  0.99888876
 7148.75000,  0.99628765
 7149.00000,  0.99340350
 7149.25000,  0.99038408
 7149.50000,  0.98710347
 7149.75000,  0.98397353
 7150.00000,  0.98069170
 7150.25000,  0.97725565
 7150.50000,  0.97405075
 7150.75000,  0.97097796
 7151.00000,  0.96772446
 7151.25000,  0.96467317
 7151.50000,  0.96143884
 7151.75000,  0.95889926
 7152.00000,  0.95587597
 7152.25000,  0.95306528
 7152.50000,  0.95030243
 7152.75000,  0.94793180
 7153.00000,  0.94516787
 7153.25000,  0.94274509
 7153.50000,  0.93999141
 7153.75000,  0.93763584
 7154.00000,  0.93503107
 7154.25000,  0.93263407
 7154.50000,  0.92991482
 7154.75000,  0.92747847
 7155.00000,  0.92504030
 7155.25000,  0.92248276
 7155.50000,  0.91994881
 7155.75000,  0.91768308
 7156.00000,  0.91517754
 7156.25000,  0.91254699
 7156.50000,  0.91039907
 7156.75000,  0.90857588
 7157.00000,  0.90608774
 7157.25000,  0.90409457
 7157.50000,  0.90217719
 7157.75000,  0.90064700
 7158.00000,  0.89904262
 7158.25000,  0.89774426
 7158.50000,  0.89646312
 7158.75000,  0.89552822
 7159.00000,  0.89475075
 7159.25000,  0.89417649
 7159.50000,  0.89351021
 7159.75000,  0.89347923
 7160.00000,  0.89320321
 7161.09473,  0.89437283
 7162.20947,  0.89776404
 7163.34326,  0.90280796
 7164.49707,  0.90897891
 7165.67041,  0.91583503
 7166.86377,  0.92396763
 7168.07617,  0.93388280
 7169.30859,  0.94624474
 7170.56006,  0.96111396
 7171.83154,  0.97842478
 7173.12305,  0.99651394
 7174.43359,  1.01395891
 7175.76367,  1.02744587
 7177.11377,  1.03612166
 7178.48340,  1.04173070
 7179.87256,  1.04515142
 7181.28174,  1.04657505
 7182.70996,  1.04631720
 7184.15820,  1.04455314
 7185.62598,  1.04259400
 7187.11328,  1.04057945
 7188.62012,  1.03869240
 7190.14648,  1.03659101
 7191.69287,  1.03357030
 7193.25879,  1.02975194
 7194.84424,  1.02373834
 7196.44922,  1.01843430
 7198.07373,  1.01404282
 7199.71826,  1.00843406
 7201.38184,  1.00261517
 7203.06543,  0.99681007
 7204.76855,  0.99176241
 7206.49170,  0.98815667
 7208.23389,  0.98584605
 7209.99609,  0.98467169
 7211.77783,  0.98442499
 7213.57910,  0.98522061
 7215.39990,  0.98736188
 7217.24023,  0.99098580
 7219.10059,  0.99491425
 7220.98047,  0.99839532
 7222.87988,  1.00068838
 7224.79883,  1.00147909
 7226.73730,  1.00103970
 7228.69580,  0.99960258
 7230.67334,  0.99800252
 7232.67090,  0.99716276
 7234.68799,  0.99762982
 7236.72510,  0.99886922
 7238.78125,  0.99990630
 7240.85742,  0.99992818
 7242.95312,  0.99849688
 7245.06836,  0.99578539
 7247.20312,  0.99276540
 7249.35742,  0.99093428
 7251.53174,  0.99030042
 7253.72559,  0.99098557
 7255.93896,  0.99330339
 7258.17188,  0.99702658
 7260.42432,  1.00142291
 7262.69678,  1.00547478
 7264.98828,  1.00892286
 7267.29980,  1.01131822
 7269.63086,  1.01256276
 7271.98193,  1.01310972
 7274.35205,  1.01471369
 7276.74219,  1.01734879
 7279.15186,  1.01981760
 7281.58105,  1.02123279
 7284.02979,  1.02159662
 7286.49805,  1.02094722
 7288.98633,  1.01936457
 7291.49414,  1.01770377
 7294.02148,  1.01603834
 7296.56836,  1.01399179
 7299.13477,  1.01141038
 7301.72119,  1.00790020
 7304.32666,  1.00395147
 7306.95215,  0.99996672
 7309.59717,  0.99617364
 7312.26221,  0.99239840
 7314.94629,  0.98859279
 7317.65039,  0.98554836
 7320.37354,  0.98426971
 7323.11670,  0.98525031
 7325.87988,  0.98808741
 7328.66211,  0.99248830
 7331.46436,  0.99735547
 7334.28564,  1.00232972
 7337.12695,  1.00702296
 7339.98828,  1.01077258
 7342.86865,  1.01322129
 7345.76855,  1.01414610
 7348.68848,  1.01333303
 7351.62793,  1.01176560
 7354.58691,  1.01040558
 7357.56543,  1.00897154
 7360.56396,  1.00709278
 7363.58154,  1.00493793
 7366.61914,  1.00241909
 7369.67627,  1.00002778
 7372.75293,  0.99752604
 7375.84961,  0.99626381
 7378.96533,  0.99575074
 7382.10107,  0.99509707
 7385.25635,  0.99371476
 7388.43115,  0.99409439
 7391.62598,  0.99413901
 7394.83984,  0.99552493
 7398.07373,  0.99802024
 7401.32715,  1.00107716
 7404.60010,  1.00407760
 7407.89258,  1.00664561
 7411.20459,  1.00875281
 7414.53662,  1.00976477
 7417.88818,  1.00992730
 7421.25928,  1.00926168
 7424.64990,  1.00786376
 7428.06006,  1.00590589
 7431.49023,  1.00367784
 7434.93994,  1.00116755
 7438.40918,  0.99851832
 7441.89795,  0.99592429
 7445.40625,  0.99412136
 7448.93457,  0.99310747
 7452.48193,  0.99287176
 7456.04932,  0.99343464
 7459.63623,  0.99441590
 7463.24316,  0.99558688
 7466.86914,  0.99664401
 7470.51514,  0.99776777
 7474.18018,  0.99906934
 7477.86523,  1.00030882
 7481.57031,  1.00127196
 7485.29443,  1.00155323
 7489.03857,  1.00157678
 7492.80176,  1.00124521
 7496.58496,  1.00088014
 7500.38770,  1.00049487
 7504.21045,  1.00020743
 7508.05225,  0.99978049
 7511.91406,  0.99935536
 7515.79541,  0.99895996
 7519.69629,  0.99878099
 7523.61670,  0.99882085
 7527.55713,  0.99886446
 7531.51660,  0.99885117
 7535.49609,  0.99882632
 7539.49512,  0.99901713
 7543.51367,  0.99921623
 7547.55176,  0.99953524
 7551.60986,  0.99962560
 7555.68750,  0.99964066
 7559.78467,  0.99961702
 7563.90137,  0.99959713
 7568.03760,  0.99961356
 7572.19385,  0.99948809
 7576.36914,  0.99943474
 7580.56445,  0.99929467
 7584.77930,  0.99927663
 7589.01367,  0.99902565
 7593.26807,  0.99897756
 7597.54199,  0.99881794
 7601.83496,  0.99856811
 7606.14795,  0.99849365
 7610.48047,  0.99852903
 7614.83301,  0.99901856
 7619.20459,  0.99966337
 7623.59619,  1.00031631
 7628.00732,  1.00070529
 7632.43799,  1.00058726
 7636.88818,  1.00013566
 7641.35840,  0.99960711
 7645.84814,  0.99918408
 7650.35742,  0.99877875
 7654.88623,  0.99864217
 7659.43457,  0.99872298
 7664.00244,  0.99865869
 7668.59033,  0.99860406
 7673.19775,  0.99863043
 7677.82471,  0.99890680
 7682.47119,  0.99920314
 7687.13721,  1.00064381
 7691.82324,  0.99815773
 7696.52832,  1.00019853
 7701.25342,  1.00053679
 7705.99805,  1.00059034
 7710.76270,  1.00310480
 7715.54639,  1.00153192
 7720.35010,  1.00140932
 7725.17334,  1.00131801
 7730.01611,  1.00121897
 7734.87842,  1.00099406
 7739.76025,  1.00079368
 7744.66211,  1.00058370
 7749.58350,  1.00041400
 7754.52441,  1.00015334
 7759.48486,  0.99986671
 7764.46484,  0.99952218
 7769.46484,  0.99934541
 7774.48438,  0.99934032
 7779.52344,  0.99937242
 7784.58203,  0.99955310
 7789.66016,  0.99980458
 7794.75781,  0.99995392
 7799.87549,  1.00002986
 7805.01270,  1.00017451
 7810.16943,  1.00036092
 7815.34570,  1.00053369
 7820.54199,  1.00059033
 7825.75732,  1.00064703
 7830.99268,  1.00058446
 7836.24756,  1.00061767
 7841.52197,  1.00056917
 7846.81592,  1.00053799
 7852.12988,  1.00046733
 7857.46338,  1.00041020
 7862.81641,  1.00029389
 7868.18896,  1.00014615
 7873.58105,  1.00009978
 7878.99268,  0.99999390
 7884.42432,  1.00016073
 7889.87549,  1.00023007
 7895.34619,  1.00024492
 7900.83643,  1.00033970
 7906.34668,  1.00040146
 7911.87598,  1.00043163
 7917.42529,  1.00042350
 7922.99414,  1.00056759
 7928.58252,  1.00053076
 7934.19043,  1.00051499
 7939.81836,  1.00065103
 7945.46582,  1.00064802
 7951.13281,  1.00071399
 7956.81934,  1.00080615
 7962.52539,  1.00072996
 7968.25098,  1.00081436
 7973.99658,  1.00074718
 7979.76172,  1.00064563
 7985.54639,  1.00051504
 7991.35059,  1.00036221
 7997.17480,  1.00023787
 8003.01807,  1.00004478
 8008.88135,  0.99991779
 8014.76416,  0.99982476
 8020.66650,  0.99975399
 8026.58838,  0.99972303
 8032.53027,  0.99973539
 8038.49170,  0.99968307
 8044.47217,  0.99964855
 8050.47314,  0.99958241
 8056.49316,  0.99957074
 8062.53271,  0.99952806
 8068.59229,  0.99943645
 8074.67139,  0.99938066
 8080.77002,  0.99931146
 8086.88818,  0.99919090
 8093.02588,  0.99898878
 8099.18359,  0.99883343
 8105.36084,  0.99856242
