#saved Fri Feb 13 17:51:08 2026
#saving x array=energy, y array=flat
#Mackinawite (aged): Mackinawite (aged)
#------------------------------------------
# energy, Mackinawite (aged)
 6880.00000, -9.04689e-5
 6890.23828,  0.00119637
 6900.47607,  3.55933e-4
 6910.71436,  4.57385e-4
 6920.95215,  0.00101373
 6931.19043,  4.73741e-4
 6941.42871,  1.61728e-4
 6951.66650,  5.09035e-5
 6961.90479, -0.00212702
 6972.14307, -0.00195526
 6982.38086,  7.11218e-5
 6992.61914, -6.44061e-4
 7002.85693,  6.05966e-4
 7013.09521,  0.00189177
 7023.33350,  0.00173057
 7033.57129,  0.00282675
 7043.80957,  0.00370200
 7054.04785,  0.00575402
 7064.28564,  0.00657696
 7074.52393,  0.00761581
 7084.76172,  0.00854918
 7095.00000,  0.01326180
 7095.25000,  0.01332214
 7095.50000,  0.01289516
 7095.75000,  0.01464004
 7096.00000,  0.01362898
 7096.25000,  0.01411189
 7096.50000,  0.01349767
 7096.75000,  0.01355761
 7097.00000,  0.01289554
 7097.25000,  0.01410291
 7097.50000,  0.01562338
 7097.75000,  0.01442006
 7098.00000,  0.01518172
 7098.25000,  0.01489390
 7098.50000,  0.01413493
 7098.75000,  0.01452966
 7099.00000,  0.01411666
 7099.25000,  0.01488419
 7099.50000,  0.01677519
 7099.75000,  0.01673385
 7100.00000,  0.01406809
 7100.25000,  0.01585691
 7100.50000,  0.01767120
 7100.75000,  0.01670611
 7101.00000,  0.01604375
 7101.25000,  0.01746784
 7101.50000,  0.01735762
 7101.75000,  0.01611642
 7102.00000,  0.01915222
 7102.25000,  0.01722473
 7102.50000,  0.01723013
 7102.75000,  0.01926725
 7103.00000,  0.01776579
 7103.25000,  0.01795756
 7103.50000,  0.01798590
 7103.75000,  0.02115906
 7104.00000,  0.01839839
 7104.25000,  0.02033149
 7104.50000,  0.01886773
 7104.75000,  0.01900409
 7105.00000,  0.01985680
 7105.25000,  0.02108658
 7105.50000,  0.02102223
 7105.75000,  0.02234063
 7106.00000,  0.02172451
 7106.25000,  0.02309438
 7106.50000,  0.02300090
 7106.75000,  0.02388252
 7107.00000,  0.02556474
 7107.25000,  0.02570569
 7107.50000,  0.02460861
 7107.75000,  0.02695039
 7108.00000,  0.02663413
 7108.25000,  0.03044274
 7108.50000,  0.03018584
 7108.75000,  0.03193249
 7109.00000,  0.03249791
 7109.25000,  0.03516855
 7109.50000,  0.03648719
 7109.75000,  0.04133527
 7110.00000,  0.04483223
 7110.25000,  0.04948920
 7110.50000,  0.05716920
 7110.75000,  0.06740549
 7111.00000,  0.07566515
 7111.25000,  0.08416762
 7111.50000,  0.09309657
 7111.75000,  0.10404728
 7112.00000,  0.11112434
 7112.25000,  0.11865585
 7112.50000,  0.12590975
 7112.75000,  0.12883308
 7113.00000,  0.12861515
 7113.25000,  0.12818420
 7113.50000,  0.12722369
 7113.75000,  0.12430288
 7114.00000,  0.12105279
 7114.25000,  0.12155344
 7114.50000,  0.12326315
 7114.75000,  0.12600122
 7115.00000,  0.13012993
 7115.25000,  0.13964408
 7115.50000,  0.15413073
 7115.75000,  0.16798466
 7116.00000,  0.18453428
 7116.25000,  0.20483740
 7116.50000,  0.22695819
 7116.75000,  0.25084219
 7117.00000,  0.28125525
 7117.25000,  0.30359062
 7117.50000,  0.33399415
 7117.75000,  0.36747403
 7118.00000,  0.39413535
 7118.25000,  0.42128905
 7118.50000,  0.45273985
 7118.75000,  0.48526156
 7119.00000,  0.51604012
 7119.25000,  0.55010930
 7119.50000,  0.57963045
 7119.75000,  0.59952023
 7120.00000,  0.62551418
 7120.25000,  0.65159558
 7120.50000,  0.67177747
 7120.75000,  0.68740649
 7121.00000,  0.70105255
 7121.25000,  0.70946478
 7121.50000,  0.72015055
 7121.75000,  0.72703876
 7122.00000,  0.73356724
 7122.25000,  0.73959774
 7122.50000,  0.74830280
 7122.75000,  0.75540556
 7123.00000,  0.76574069
 7123.25000,  0.77791947
 7123.50000,  0.78976920
 7123.75000,  0.80024123
 7124.00000,  0.81276464
 7124.25000,  0.82683139
 7124.50000,  0.84206547
 7124.75000,  0.85636208
 7125.00000,  0.86674766
 7125.25000,  0.87993160
 7125.50000,  0.89317969
 7125.75000,  0.90303017
 7126.00000,  0.91125505
 7126.25000,  0.92487582
 7126.50000,  0.93561439
 7126.75000,  0.94571854
 7127.00000,  0.95314865
 7127.25000,  0.96170527
 7127.50000,  0.97076144
 7127.75000,  0.97972370
 7128.00000,  0.98980056
 7128.25000,  0.99389714
 7128.50000,  1.00407005
 7128.75000,  1.00990066
 7129.00000,  1.01810964
 7129.25000,  1.02196440
 7129.50000,  1.02547366
 7129.75000,  1.03099571
 7130.00000,  1.03445846
 7130.25000,  1.03821134
 7130.50000,  1.03678511
 7130.75000,  1.03811895
 7131.00000,  1.03607647
 7131.25000,  1.04344262
 7131.50000,  1.04665669
 7131.75000,  1.04221357
 7132.00000,  1.04069366
 7132.25000,  1.04667581
 7132.50000,  1.04718022
 7132.75000,  1.04655557
 7133.00000,  1.04713442
 7133.25000,  1.04780040
 7133.50000,  1.04702838
 7133.75000,  1.05049688
 7134.00000,  1.05038387
 7134.25000,  1.04787750
 7134.50000,  1.04846369
 7134.75000,  1.04805304
 7135.00000,  1.05089205
 7135.25000,  1.04980074
 7135.50000,  1.04806667
 7135.75000,  1.05258114
 7136.00000,  1.05240133
 7136.25000,  1.05201816
 7136.50000,  1.05362405
 7136.75000,  1.05357070
 7137.00000,  1.05697083
 7137.25000,  1.05258905
 7137.50000,  1.05655214
 7137.75000,  1.05819517
 7138.00000,  1.05560893
 7138.25000,  1.05575389
 7138.50000,  1.05763989
 7138.75000,  1.05564471
 7139.00000,  1.05801986
 7139.25000,  1.05787344
 7139.50000,  1.05859436
 7139.75000,  1.06285469
 7140.00000,  1.05990915
 7140.25000,  1.05960380
 7140.50000,  1.05736357
 7140.75000,  1.06277091
 7141.00000,  1.05948001
 7141.25000,  1.05918233
 7141.50000,  1.05815543
 7141.75000,  1.05900719
 7142.00000,  1.05959096
 7142.25000,  1.05936495
 7142.50000,  1.05868146
 7142.75000,  1.06064364
 7143.00000,  1.05888164
 7143.25000,  1.05864147
 7143.50000,  1.05775455
 7143.75000,  1.06191113
 7144.00000,  1.05382365
 7144.25000,  1.05965848
 7144.50000,  1.06024481
 7144.75000,  1.05544894
 7145.00000,  1.05706473
 7145.25000,  1.05622094
 7145.50000,  1.05607271
 7145.75000,  1.05344372
 7146.00000,  1.05238032
 7146.25000,  1.05343410
 7146.50000,  1.04949013
 7146.75000,  1.05160847
 7147.00000,  1.05024083
 7147.25000,  1.04507015
 7147.50000,  1.04480366
 7147.75000,  1.04337490
 7148.00000,  1.04153305
 7148.25000,  1.03978214
 7148.50000,  1.03419422
 7148.75000,  1.03467041
 7149.00000,  1.03110903
 7149.25000,  1.03103056
 7149.50000,  1.02399169
 7149.75000,  1.02094313
 7150.00000,  1.01622837
 7150.25000,  1.01454710
 7150.50000,  1.01076087
 7150.75000,  1.00650082
 7151.00000,  1.00491976
 7151.25000,  1.00252945
 7151.50000,  0.99891434
 7151.75000,  0.99316685
 7152.00000,  0.98868138
 7152.25000,  0.98677250
 7152.50000,  0.98022672
 7152.75000,  0.97753437
 7153.00000,  0.97344113
 7153.25000,  0.97000475
 7153.50000,  0.96820092
 7153.75000,  0.96340660
 7154.00000,  0.95586337
 7154.25000,  0.95474012
 7154.50000,  0.95057681
 7154.75000,  0.94737701
 7155.00000,  0.94209671
 7155.25000,  0.94299176
 7155.50000,  0.93883075
 7155.75000,  0.93431317
 7156.00000,  0.93351733
 7156.25000,  0.92809217
 7156.50000,  0.92670372
 7156.75000,  0.92560433
 7157.00000,  0.92250859
 7157.25000,  0.92065726
 7157.50000,  0.91752893
 7157.75000,  0.91696835
 7158.00000,  0.91224851
 7158.25000,  0.91127826
 7158.50000,  0.90890773
 7158.75000,  0.90483147
 7159.00000,  0.90271410
 7159.25000,  0.90068431
 7159.50000,  0.90431170
 7159.75000,  0.89993625
 7160.00000,  0.89642973
 7161.09473,  0.89427851
 7162.20947,  0.89298568
 7163.34326,  0.89172394
 7164.49707,  0.89167653
 7165.67041,  0.89373879
 7166.86377,  0.89347756
 7168.07617,  0.89992659
 7169.30859,  0.90444585
 7170.56006,  0.90979929
 7171.83154,  0.92145577
 7173.12305,  0.92994011
 7174.43359,  0.94120969
 7175.76367,  0.95030698
 7177.11377,  0.96174417
 7178.48340,  0.97343574
 7179.87256,  0.98483278
 7181.28174,  0.99808485
 7182.70996,  1.00933207
 7184.15820,  1.02172336
 7185.62598,  1.03283283
 7187.11328,  1.04208065
 7188.62012,  1.04299546
 7190.14648,  1.05227159
 7191.69287,  1.05329367
 7193.25879,  1.05411589
 7194.84424,  1.05157187
 7196.44922,  1.04905410
 7198.07373,  1.04576777
 7199.71826,  1.04133468
 7201.38184,  1.03336834
 7203.06543,  1.02661609
 7204.76855,  1.01776291
 7206.49170,  1.00758040
 7208.23389,  1.00167564
 7209.99609,  0.98894744
 7211.77783,  0.97841862
 7213.57910,  0.96975196
 7215.39990,  0.96333816
 7217.24023,  0.95722214
 7219.10059,  0.95248023
 7220.98047,  0.94705093
 7222.87988,  0.94636659
 7224.79883,  0.94569976
 7226.73730,  0.94571286
 7228.69580,  0.94660045
 7230.67334,  0.95062112
 7232.67090,  0.95332291
 7234.68799,  0.95768334
 7236.72510,  0.96375327
 7238.78125,  0.97147253
 7240.85742,  0.97871854
 7242.95312,  0.98964096
 7245.06836,  1.00017624
 7247.20312,  1.00579728
 7249.35742,  1.01652147
 7251.53174,  1.02192060
 7253.72559,  1.02773243
 7255.93896,  1.02973998
 7258.17188,  1.03432151
 7260.42432,  1.03284114
 7262.69678,  1.03164656
 7264.98828,  1.03169453
 7267.29980,  1.02850459
 7269.63086,  1.02312850
 7271.98193,  1.01987002
 7274.35205,  1.01445200
 7276.74219,  1.01037546
 7279.15186,  1.00491036
 7281.58105,  1.00311879
 7284.02979,  1.00237661
 7286.49805,  0.99808120
 7288.98633,  0.99415310
 7291.49414,  0.99055210
 7294.02148,  0.98954902
 7296.56836,  0.98595024
 7299.13477,  0.98571695
 7301.72119,  0.98695407
 7304.32666,  0.98704555
 7306.95215,  0.98709926
 7309.59717,  0.98788377
 7312.26221,  0.99167125
 7314.94629,  0.99307427
 7317.65039,  0.99477224
 7320.37354,  0.99343222
 7323.11670,  0.99511871
 7325.87988,  0.99755564
 7328.66211,  0.99883916
 7331.46436,  1.00021862
 7334.28564,  1.00130912
 7337.12695,  1.00320003
 7339.98828,  1.00398675
 7342.86865,  1.00417055
 7345.76855,  1.00334940
 7348.68848,  1.00639658
 7351.62793,  1.00794784
 7354.58691,  1.00873607
 7357.56543,  1.00641464
 7360.56396,  1.00842715
 7363.58154,  1.00623696
 7366.61914,  1.00647572
 7369.67627,  1.00635098
 7372.75293,  1.00511309
 7375.84961,  1.00532202
 7378.96533,  1.00347681
 7382.10107,  1.00095937
 7385.25635,  0.99903702
 7388.43115,  1.00068420
 7391.62598,  0.99639426
 7394.83984,  0.99772064
 7398.07373,  0.99809258
 7401.32715,  0.99760273
 7404.60010,  0.99584324
 7407.89258,  0.99640289
 7411.20459,  0.99474005
 7414.53662,  0.99576540
 7417.88818,  0.99353790
 7421.25928,  0.99279894
 7424.64990,  0.99644942
 7428.06006,  0.99383562
 7431.49023,  0.99396303
 7434.93994,  0.99742118
 7438.40918,  0.99594096
 7441.89795,  0.99902165
 7445.40625,  1.00117207
 7448.93457,  1.00124842
 7452.48193,  1.00220068
 7456.04932,  1.00154496
 7459.63623,  1.00498266
 7463.24316,  1.00462851
 7466.86914,  1.00530912
 7470.51514,  1.00546291
 7474.18018,  1.00541186
 7477.86523,  1.00385674
 7481.57031,  1.00602024
 7485.29443,  1.00251991
 7489.03857,  1.00198565
 7492.80176,  1.00356247
 7496.58496,  0.99922771
 7500.38770,  0.99967224
 7504.21045,  0.99781456
 7508.05225,  0.99761983
 7511.91406,  0.99625895
 7515.79541,  0.99541757
 7519.69629,  0.99601495
 7523.61670,  0.99398057
 7527.55713,  0.99443676
 7531.51660,  0.99332669
 7535.49609,  0.99447013
 7539.49512,  0.99590017
 7543.51367,  0.99697529
 7547.55176,  0.99884694
 7551.60986,  0.99649008
 7555.68750,  0.99773772
 7559.78467,  0.99818117
 7563.90137,  0.99981808
 7568.03760,  1.00019492
 7572.19385,  1.00235607
 7576.36914,  1.00132622
 7580.56445,  1.00099539
 7584.77930,  1.00437647
 7589.01367,  1.00208501
 7593.26807,  1.00175815
 7597.54199,  1.00128677
 7601.83496,  1.00127687
 7606.14795,  1.00253501
 7610.48047,  1.00078856
 7614.83301,  1.00110187
 7619.20459,  0.99764217
 7623.59619,  0.99999339
 7628.00732,  1.00003075
 7632.43799,  0.99803713
 7636.88818,  0.99846165
 7641.35840,  0.99812431
 7645.84814,  0.99672587
 7650.35742,  0.99708704
 7654.88623,  0.99673195
 7659.43457,  0.99801987
 7664.00244,  0.99836599
 7668.59033,  0.99717454
 7673.19775,  0.99846754
 7677.82471,  0.99725842
 7682.47119,  0.99818273
 7687.13721,  0.99960117
 7691.82324,  0.99951047
 7696.52832,  1.00045238
 7701.25342,  1.00083679
 7705.99805,  0.99918042
 7710.76270,  1.00146178
 7715.54639,  1.00117037
 7720.35010,  1.00194530
 7725.17334,  1.00088885
 7730.01611,  1.00160571
 7734.87842,  1.00036033
 7739.76025,  1.00161614
 7744.66211,  1.00280802
 7749.58350,  1.00138329
 7754.52441,  1.00202765
 7759.48486,  1.00124911
 7764.46484,  1.00048715
 7769.46484,  0.99961305
 7774.48438,  1.00007430
 7779.52344,  0.99789385
 7784.58203,  1.00243686
 7789.66016,  0.99931188
 7794.75781,  0.99963846
 7799.87549,  1.00320329
 7805.01270,  0.99883798
 7810.16943,  1.00010862
 7815.34570,  0.99871405
 7820.54199,  1.00119115
 7825.75732,  0.99984512
 7830.99268,  1.00018598
 7836.24756,  1.00062418
 7841.52197,  0.99980321
 7846.81592,  1.00144118
 7852.12988,  1.00111896
 7857.46338,  1.00146506
 7862.81641,  0.99988016
 7868.18896,  1.00111722
 7873.58105,  0.99991696
 7878.99268,  1.00017149
 7884.42432,  1.00085995
 7889.87549,  1.00121592
 7895.34619,  1.00175811
 7900.83643,  1.00060379
 7906.34668,  1.00126477
 7911.87598,  1.00009563
 7917.42529,  1.00241499
 7922.99414,  1.00184150
 7928.58252,  1.00188680
 7934.19043,  1.00119920
 7939.81836,  1.00159722
 7945.46582,  1.00061996
 7951.13281,  1.00069615
 7956.81934,  1.00195664
 7962.52539,  1.00124873
 7968.25098,  1.00084337
 7973.99658,  0.99988627
 7979.76172,  1.00145872
 7985.54639,  0.99964177
 7991.35059,  1.00169604
 7997.17480,  1.00210948
 8003.01807,  0.99922144
 8008.88135,  1.00100808
 8014.76416,  1.00121735
 8020.66650,  0.99986218
 8026.58838,  1.00015540
 8032.53027,  0.99957428
 8038.49170,  0.99988356
 8044.47217,  0.99865400
 8050.47314,  0.99773902
 8056.49316,  0.99896248
 8062.53271,  0.99855421
 8068.59229,  0.99837550
 8074.67139,  0.99834367
 8080.77002,  0.99791093
 8086.88818,  0.99820709
 8093.02588,  0.99677641
 8099.18359,  0.99719424
 8105.36084,  0.99699953
