#saved Fri Feb 13 17:51:08 2026
#saving x array=energy, y array=flat
#Maghemite: Maghemite
#------------------------------------------
# energy, Maghemite
 6898.12500,  3.11219e-4
 6908.36328,  1.43145e-4
 6918.60107,  1.70084e-4
 6928.83936,  1.51568e-4
 6939.07715,  1.95456e-5
 6949.31543, -1.10552e-4
 6959.55371, -5.88393e-5
 6969.79150, -8.09026e-5
 6980.02979, -1.23545e-4
 6990.26807, -1.56789e-4
 7000.50586, -1.59939e-4
 7010.74414, -8.06360e-5
 7020.98193,  1.05153e-4
 7031.22021,  3.24852e-4
 7041.45850,  6.29453e-4
 7051.69629,  0.00152280
 7061.93457,  0.00210258
 7072.17285,  0.00311901
 7082.41064,  0.00482257
 7092.64893,  0.00774507
 7102.88672,  0.01410156
 7113.12500,  0.05999643
 7113.37500,  0.07070464
 7113.62500,  0.08477700
 7113.87500,  0.10262927
 7114.12500,  0.12346057
 7114.37500,  0.14404734
 7114.62500,  0.16224892
 7114.87500,  0.17327020
 7115.12500,  0.17591552
 7115.37500,  0.17059999
 7115.62500,  0.15985696
 7115.87500,  0.14831837
 7116.12500,  0.13908033
 7116.37500,  0.13321607
 7116.62500,  0.13052005
 7116.87500,  0.13034157
 7117.12500,  0.13183498
 7117.37500,  0.13357899
 7117.62500,  0.13523088
 7117.87500,  0.13699828
 7118.12500,  0.13849570
 7118.37500,  0.13981808
 7118.62500,  0.14110316
 7118.87500,  0.14275317
 7119.12500,  0.14459278
 7119.37500,  0.14761631
 7119.62500,  0.15165005
 7119.87500,  0.15739046
 7120.12500,  0.16477255
 7120.37500,  0.17405491
 7120.62500,  0.18593049
 7120.87500,  0.20001375
 7121.12500,  0.21704286
 7121.37500,  0.23642408
 7121.62500,  0.25951303
 7121.87500,  0.28529747
 7122.12500,  0.31487576
 7122.37500,  0.34719353
 7122.62500,  0.38158619
 7122.87500,  0.41913932
 7123.12500,  0.45626451
 7123.37500,  0.49347757
 7123.62500,  0.52754965
 7123.87500,  0.55965236
 7124.12500,  0.58790328
 7124.37500,  0.61358348
 7124.62500,  0.63647344
 7124.87500,  0.65731052
 7125.12500,  0.67730516
 7125.37500,  0.69611976
 7125.62500,  0.71517289
 7125.87500,  0.73547663
 7126.12500,  0.75706831
 7126.37500,  0.78060429
 7126.62500,  0.80591703
 7126.87500,  0.83291627
 7127.12500,  0.86079771
 7127.37500,  0.88810633
 7127.62500,  0.91403613
 7127.87500,  0.93935056
 7128.12500,  0.96109813
 7128.37500,  0.97994331
 7128.62500,  0.99627487
 7128.87500,  1.00932353
 7129.12500,  1.02043628
 7129.37500,  1.03017729
 7129.62500,  1.03827481
 7129.87500,  1.04644077
 7130.12500,  1.05439624
 7130.37500,  1.06349022
 7130.62500,  1.07316072
 7130.87500,  1.08422049
 7131.12500,  1.09653169
 7131.37500,  1.10962081
 7131.62500,  1.12278838
 7131.87500,  1.13627152
 7132.12500,  1.14939907
 7132.37500,  1.16125862
 7132.62500,  1.17207820
 7132.87500,  1.18211339
 7133.12500,  1.18940202
 7133.37500,  1.19472466
 7133.62500,  1.19823358
 7133.87500,  1.19935782
 7134.12500,  1.19821828
 7134.37500,  1.19511766
 7134.62500,  1.19053837
 7134.87500,  1.18438769
 7135.12500,  1.17736187
 7135.37500,  1.16977270
 7135.62500,  1.16175055
 7135.87500,  1.15392388
 7136.12500,  1.14634832
 7136.37500,  1.13932236
 7136.62500,  1.13254216
 7136.87500,  1.12673463
 7137.12500,  1.12165909
 7137.37500,  1.11684631
 7137.62500,  1.11358508
 7137.87500,  1.11052924
 7138.12500,  1.10803674
 7138.37500,  1.10631833
 7138.62500,  1.10432688
 7138.87500,  1.10284712
 7139.12500,  1.10150373
 7139.37500,  1.09975028
 7139.62500,  1.09839661
 7139.87500,  1.09658604
 7140.12500,  1.09453070
 7140.37500,  1.09284040
 7140.62500,  1.09018660
 7140.87500,  1.08826298
 7141.12500,  1.08559662
 7141.37500,  1.08251273
 7141.62500,  1.07939810
 7141.87500,  1.07614654
 7142.12500,  1.07189047
 7142.37500,  1.06856751
 7142.62500,  1.06391355
 7142.87500,  1.06009588
 7143.12500,  1.05597333
 7143.37500,  1.05190196
 7143.62500,  1.04854923
 7143.87500,  1.04539224
 7144.12500,  1.04199057
 7144.37500,  1.03969877
 7144.62500,  1.03764290
 7144.87500,  1.03623810
 7145.12500,  1.03590590
 7145.37500,  1.03559287
 7145.62500,  1.03594937
 7145.87500,  1.03681376
 7146.12500,  1.03799881
 7146.37500,  1.03951671
 7146.62500,  1.04095723
 7146.87500,  1.04299110
 7147.12500,  1.04447006
 7147.37500,  1.04608231
 7147.62500,  1.04662667
 7147.87500,  1.04750716
 7148.12500,  1.04739178
 7148.37500,  1.04703318
 7148.62500,  1.04596310
 7148.87500,  1.04458698
 7149.12500,  1.04270605
 7149.37500,  1.04014312
 7149.62500,  1.03686799
 7149.87500,  1.03348365
 7150.12500,  1.02971625
 7150.37500,  1.02617660
 7150.62500,  1.02136122
 7150.87500,  1.01701235
 7151.12500,  1.01231461
 7151.37500,  1.00769387
 7151.62500,  1.00318522
 7151.87500,  0.99872602
 7152.12500,  0.99410153
 7152.37500,  0.98995990
 7152.62500,  0.98618459
 7152.87500,  0.98238017
 7153.12500,  0.97920583
 7153.37500,  0.97585136
 7153.62500,  0.97316134
 7153.87500,  0.97022009
 7154.12500,  0.96779390
 7154.37500,  0.96522123
 7154.62500,  0.96320871
 7154.87500,  0.96082395
 7155.12500,  0.95907900
 7155.37500,  0.95700572
 7155.62500,  0.95483178
 7155.87500,  0.95274785
 7156.12500,  0.95050142
 7156.37500,  0.94867277
 7156.62500,  0.94683502
 7156.87500,  0.94451893
 7157.12500,  0.94244376
 7157.37500,  0.94038905
 7157.62500,  0.93826440
 7157.87500,  0.93599000
 7158.12500,  0.93405973
 7158.37500,  0.93202861
 7158.62500,  0.92981846
 7158.87500,  0.92756894
 7159.12500,  0.92557553
 7159.37500,  0.92380768
 7159.62500,  0.92180352
 7159.87500,  0.91983727
 7160.12500,  0.91769771
 7160.37500,  0.91606284
 7160.62500,  0.91434023
 7160.87500,  0.91309322
 7161.12500,  0.91176991
 7161.37500,  0.91029639
 7161.62500,  0.90977009
 7161.87500,  0.90856368
 7162.12500,  0.90825265
 7162.37500,  0.90746464
 7162.62500,  0.90715078
 7162.87500,  0.90715040
 7163.12500,  0.90694199
 7163.37500,  0.90694059
 7163.62500,  0.90707520
 7163.87500,  0.90744284
 7164.12500,  0.90751570
 7164.37500,  0.90798387
 7164.62500,  0.90846858
 7164.87500,  0.90940126
 7165.12500,  0.91034319
 7165.37500,  0.91058530
 7165.62500,  0.91173161
 7165.87500,  0.91253596
 7166.12500,  0.91333384
 7166.37500,  0.91435719
 7166.62500,  0.91546073
 7166.87500,  0.91609720
 7167.12500,  0.91724863
 7167.37500,  0.91850389
 7167.62500,  0.92006163
 7167.87500,  0.92123841
 7168.12500,  0.92230779
 7168.37500,  0.92337417
 7168.62500,  0.92521055
 7168.87500,  0.92663432
 7169.12500,  0.92803889
 7169.37500,  0.92976577
 7169.62500,  0.93129716
 7169.87500,  0.93316086
 7170.12500,  0.93470269
 7170.37500,  0.93659810
 7170.62500,  0.93804199
 7170.87500,  0.93987483
 7171.12500,  0.94223628
 7171.37500,  0.94400372
 7171.62500,  0.94603147
 7171.87500,  0.94803357
 7172.12500,  0.95013403
 7172.37500,  0.95254707
 7172.62500,  0.95497838
 7172.87500,  0.95742441
 7173.12500,  0.95940300
 7173.37500,  0.96214014
 7173.62500,  0.96426555
 7173.87500,  0.96667081
 7174.12500,  0.96909205
 7174.37500,  0.97180033
 7174.62500,  0.97405954
 7174.87500,  0.97692137
 7175.12500,  0.97891179
 7175.37500,  0.98159021
 7175.62500,  0.98379656
 7175.87500,  0.98619619
 7176.12500,  0.98807711
 7176.37500,  0.99023797
 7176.62500,  0.99159171
 7176.87500,  0.99303945
 7177.12500,  0.99481541
 7177.37500,  0.99591118
 7177.62500,  0.99725897
 7177.87500,  0.99833035
 7178.12500,  0.99897448
 7179.22119,  1.00374095
 7180.33691,  1.00847079
 7181.47266,  1.01409954
 7182.62793,  1.01925187
 7183.80273,  1.02417170
 7184.99756,  1.02704374
 7186.21143,  1.02861981
 7187.44580,  1.02902732
 7188.69922,  1.02955156
 7189.97266,  1.02906493
 7191.26514,  1.02883604
 7192.57812,  1.02752563
 7193.91016,  1.02662415
 7195.26221,  1.02503787
 7196.63379,  1.02284658
 7198.02490,  1.02017563
 7199.43604,  1.01768797
 7200.86670,  1.01512642
 7202.31689,  1.01171613
 7203.78711,  1.00860593
 7205.27637,  1.00508470
 7206.78613,  1.00188858
 7208.31494,  0.99850062
 7209.86377,  0.99629217
 7211.43164,  0.99407597
 7213.02002,  0.99355382
 7214.62744,  0.99405004
 7216.25488,  0.99468911
 7217.90186,  0.99613299
 7219.56836,  0.99740361
 7221.25488,  0.99958452
 7222.96094,  1.00140866
 7224.68652,  1.00311560
 7226.43213,  1.00497113
 7228.19678,  1.00554242
 7229.98145,  1.00561008
 7231.78613,  1.00445074
 7233.60986,  1.00228114
 7235.45361,  0.99970407
 7237.31738,  0.99654539
 7239.20020,  0.99280037
 7241.10303,  0.98895378
 7243.02539,  0.98392196
 7244.96729,  0.98127245
 7246.92920,  0.97831475
 7248.91064,  0.97739082
 7250.91162,  0.97813580
 7252.93262,  0.98079101
 7254.97266,  0.98499266
 7257.03271,  0.98548974
 7259.11279,  0.99318280
 7261.21191,  0.99837788
 7263.33105,  1.00404964
 7265.47021,  1.00895824
 7267.62842,  1.01248760
 7269.80664,  1.01497227
 7272.00439,  1.01715395
 7274.22168,  1.01879774
 7276.45898,  1.01944371
 7278.71582,  1.01976843
 7280.99219,  1.01947166
 7283.28857,  1.01830711
 7285.60400,  1.01633033
 7287.93945,  1.01418473
 7290.29492,  1.01127030
 7292.66943,  1.00801173
 7295.06396,  1.00471803
 7297.47803,  1.00171644
 7299.91211,  0.99933750
 7302.36572,  0.99751794
 7304.83887,  0.99621646
 7307.33154,  0.99519320
 7309.84424,  0.99493560
 7312.37646,  0.99498127
 7314.92822,  0.99531517
 7317.49951,  0.99678786
 7320.09082,  0.99864279
 7322.70166,  1.00093455
 7325.33252,  1.00333901
 7327.98242,  1.00538975
 7330.65234,  1.00630789
 7333.34180,  1.00671418
 7336.05127,  1.00640888
 7338.78027,  1.00509153
 7341.52881,  1.00375786
 7344.29688,  1.00250315
 7347.08496,  1.00067831
 7349.89258,  0.99877390
 7352.71973,  0.99709030
 7355.56641,  0.99563720
 7358.43311,  0.99522109
 7361.31934,  0.99468494
 7364.22559,  0.99499415
 7367.15088,  0.99560066
 7370.09619,  0.99682191
 7373.06104,  0.99811803
 7376.04590,  0.99904925
 7379.05029,  0.99956787
 7382.07422,  1.00001817
 7385.11768,  1.00033386
 7388.18115,  1.00096063
 7391.26416,  1.00207190
 7394.36670,  1.00316211
 7397.48877,  1.00435409
 7400.63086,  1.00485508
 7403.79248,  1.00509618
 7406.97363,  1.00481015
 7410.17480,  1.00410235
 7413.39551,  1.00327396
 7416.63574,  1.00220611
 7419.89600,  1.00097626
 7423.17529,  1.00012069
 7426.47510,  0.99905308
 7429.79395,  0.99833394
 7433.13232,  0.99746986
 7436.49072,  0.99705780
 7439.86914,  0.99708793
 7443.26660,  0.99728239
 7446.68408,  0.99785424
 7450.12109,  0.99821670
 7453.57764,  0.99898100
 7457.05420,  0.99948497
 7460.55029,  0.99963326
 7464.06592,  0.99940592
 7467.60156,  0.99910118
 7471.15625,  0.99874204
 7474.73096,  0.99837244
 7478.32568,  0.99813209
 7481.93945,  0.99825840
 7485.57324,  0.99827759
 7489.22656,  0.99821043
 7492.89990,  0.99826811
 7496.59277,  0.99848387
 7500.30518,  0.99856708
 7504.03711,  0.99868127
 7507.78906,  0.99882298
 7511.56055,  0.99870521
 7515.35156,  0.99859724
 7519.16211,  0.99868213
 7522.99268,  0.99893552
 7526.84277,  0.99907523
 7530.71289,  0.99977268
 7534.60205,  1.00026643
 7538.51123,  1.00063104
 7542.43994,  1.00071353
 7546.38867,  1.00082738
 7550.35693,  1.00077823
 7554.34473,  1.00033602
 7558.35205,  0.99990522
 7562.37939,  0.99950737
 7566.42627,  0.99942162
 7570.49268,  0.99948837
 7574.57861,  0.99968878
 7578.68457,  0.99972068
 7582.81006,  0.99969877
 7586.95508,  0.99964328
 7591.12012,  0.99952146
 7595.30469,  0.99949974
 7599.50879,  0.99940506
 7603.73291,  0.99973882
 7607.97607,  0.99957910
 7612.23975,  0.99993378
 7616.52246,  0.99986565
 7620.82471,  1.00003177
 7625.14697,  1.00001651
 7629.48926,  0.99990821
 7633.85059,  0.99992712
 7638.23193,  0.99981081
 7642.63281,  0.99939885
 7647.05322,  0.99923992
 7651.49365,  0.99433112
 7655.95361,  0.99926001
 7660.43311,  0.99931984
 7664.93262,  0.99924513
 7669.45117,  0.99926412
 7673.98975,  0.99923795
 7678.54834,  0.99928915
 7683.12598,  0.99954912
 7687.72363,  0.99972308
 7692.34082,  0.99985735
 7696.97803,  1.00006782
 7701.63477,  1.00023733
 7706.31104,  1.00029820
 7711.00684,  1.00033313
 7715.72266,  1.00044690
 7720.45801,  1.00037235
 7725.21289,  1.00038556
 7729.98730,  1.00029164
 7734.78174,  1.00035860
 7739.59570,  1.00001930
 7744.42969,  1.00004309
 7749.28271,  1.00011288
 7754.15576,  1.00000032
 7759.04834,  0.99994694
 7763.96094,  0.99986978
 7768.89307,  0.99996319
 7773.84473,  0.99988681
 7778.81592,  0.99994535
 7783.80713,  1.00008932
 7788.81738,  1.00013900
 7793.84814,  1.00033985
 7798.89795,  1.00045169
 7803.96777,  1.00040846
 7809.05713,  1.00038971
 7814.16602,  1.00036691
 7819.29492,  1.00039803
 7824.44336,  1.00022135
 7829.61133,  1.00028417
 7834.79932,  1.00012391
 7840.00635,  1.00031044
 7845.23340,  1.00022061
 7850.48047,  1.00016151
 7855.74658,  1.00021602
 7861.03271,  1.00004840
 7866.33838,  1.00000957
 7871.66406,  1.00001610
 7877.00928,  1.00005322
 7882.37402,  1.00008160
 7887.75830,  1.00010111
 7893.16260,  1.00017087
 7898.58643,  1.00001154
 7904.02979,  1.00010823
 7909.49268,  1.00002083
 7914.97559,  1.00018197
 7920.47803,  1.00024166
 7926.00049,  1.00021057
 7931.54199,  1.00026342
 7937.10352,  1.00016157
 7942.68457,  1.00014973
 7948.28564,  1.00017565
 7953.90625,  1.00018519
 7959.54639,  1.00007440
 7965.20605,  1.00022480
 7970.88574,  1.00014318
 7976.58447,  1.00033105
 7982.30371,  1.00022486
 7988.04199,  1.00024739
 7993.80029,  1.00035846
 7999.57812,  1.00017645
 8005.37549,  1.00014318
