#saved Fri Feb 13 17:51:08 2026
#saving x array=energy, y array=flat
#Nontronite: Nontronite
#------------------------------------------
# energy, Nontronite
 6880.00000,  3.14603e-4
 6890.23828,  2.69674e-4
 6900.47607,  1.73734e-4
 6910.71436,  1.09712e-4
 6920.95215,  6.18044e-5
 6931.19043,  7.55139e-5
 6941.42871,  2.97682e-5
 6951.66650,  1.32203e-5
 6961.90479, -1.16865e-4
 6972.14307, -1.59292e-4
 6982.38086, -2.18839e-5
 6992.61914, -1.02673e-4
 7002.85693,  4.44350e-5
 7013.09521,  1.75972e-4
 7023.33350,  2.60056e-4
 7033.57129,  4.26488e-4
 7043.80957,  8.60054e-4
 7054.04785,  0.00130324
 7064.28564,  0.00192514
 7074.52393,  0.00307851
 7084.76172,  0.00465422
 7095.00000,  0.00769276
 7095.25000,  0.00786554
 7095.50000,  0.00796740
 7095.75000,  0.00803652
 7096.00000,  0.00816465
 7096.25000,  0.00828646
 7096.50000,  0.00844832
 7096.75000,  0.00852138
 7097.00000,  0.00866348
 7097.25000,  0.00872693
 7097.50000,  0.00893434
 7097.75000,  0.00900118
 7098.00000,  0.00919182
 7098.25000,  0.00930322
 7098.50000,  0.00941899
 7098.75000,  0.00966408
 7099.00000,  0.00971936
 7099.25000,  0.00987051
 7099.50000,  0.00998256
 7099.75000,  0.01012897
 7100.00000,  0.01029061
 7100.25000,  0.01055866
 7100.50000,  0.01063066
 7100.75000,  0.01081009
 7101.00000,  0.01100964
 7101.25000,  0.01116321
 7101.50000,  0.01141223
 7101.75000,  0.01158878
 7102.00000,  0.01188588
 7102.25000,  0.01191955
 7102.50000,  0.01232252
 7102.75000,  0.01228439
 7103.00000,  0.01259701
 7103.25000,  0.01278639
 7103.50000,  0.01305240
 7103.75000,  0.01330843
 7104.00000,  0.01354513
 7104.25000,  0.01373071
 7104.50000,  0.01393365
 7104.75000,  0.01427375
 7105.00000,  0.01449643
 7105.25000,  0.01491212
 7105.50000,  0.01520078
 7105.75000,  0.01547387
 7106.00000,  0.01584697
 7106.25000,  0.01615586
 7106.50000,  0.01652304
 7106.75000,  0.01681610
 7107.00000,  0.01724801
 7107.25000,  0.01763732
 7107.50000,  0.01797008
 7107.75000,  0.01841596
 7108.00000,  0.01887662
 7108.25000,  0.01951201
 7108.50000,  0.02008768
 7108.75000,  0.02062195
 7109.00000,  0.02119885
 7109.25000,  0.02201053
 7109.50000,  0.02266935
 7109.75000,  0.02350491
 7110.00000,  0.02454388
 7110.25000,  0.02556758
 7110.50000,  0.02700077
 7110.75000,  0.02850563
 7111.00000,  0.03045961
 7111.25000,  0.03283666
 7111.50000,  0.03581850
 7111.75000,  0.03952920
 7112.00000,  0.04418874
 7112.25000,  0.04879166
 7112.50000,  0.05454788
 7112.75000,  0.05969298
 7113.00000,  0.06470714
 7113.25000,  0.06838141
 7113.50000,  0.07168653
 7113.75000,  0.07416162
 7114.00000,  0.07591393
 7114.25000,  0.07653981
 7114.50000,  0.07617520
 7114.75000,  0.07516833
 7115.00000,  0.07301662
 7115.25000,  0.07092005
 7115.50000,  0.06857712
 7115.75000,  0.06685335
 7116.00000,  0.06555500
 7116.25000,  0.06499483
 7116.50000,  0.06517614
 7116.75000,  0.06607396
 7117.00000,  0.06742566
 7117.25000,  0.06912106
 7117.50000,  0.07170218
 7117.75000,  0.07454082
 7118.00000,  0.07803770
 7118.25000,  0.08166105
 7118.50000,  0.08611848
 7118.75000,  0.09066404
 7119.00000,  0.09637396
 7119.25000,  0.10234623
 7119.50000,  0.11006780
 7119.75000,  0.11832957
 7120.00000,  0.12851506
 7120.25000,  0.13959611
 7120.50000,  0.15317616
 7120.75000,  0.16835174
 7121.00000,  0.18554737
 7121.25000,  0.20447964
 7121.50000,  0.22661402
 7121.75000,  0.25067146
 7122.00000,  0.27522734
 7122.25000,  0.30301507
 7122.50000,  0.33319071
 7122.75000,  0.36593584
 7123.00000,  0.39727079
 7123.25000,  0.43164917
 7123.50000,  0.46471814
 7123.75000,  0.49939311
 7124.00000,  0.52964722
 7124.25000,  0.56309109
 7124.50000,  0.59243215
 7124.75000,  0.62402638
 7125.00000,  0.65165045
 7125.25000,  0.68377645
 7125.50000,  0.71291502
 7125.75000,  0.74713145
 7126.00000,  0.77678688
 7126.25000,  0.81406690
 7126.50000,  0.84848370
 7126.75000,  0.88638369
 7127.00000,  0.91888920
 7127.25000,  0.95733430
 7127.50000,  0.99002719
 7127.75000,  1.02389497
 7128.00000,  1.05102390
 7128.25000,  1.07872800
 7128.50000,  1.10059978
 7128.75000,  1.12120270
 7129.00000,  1.13783361
 7129.25000,  1.15358791
 7129.50000,  1.16674535
 7129.75000,  1.17914271
 7130.00000,  1.18928866
 7130.25000,  1.19954608
 7130.50000,  1.20949966
 7130.75000,  1.21918806
 7131.00000,  1.22762940
 7131.25000,  1.23634060
 7131.50000,  1.24396313
 7131.75000,  1.25099923
 7132.00000,  1.25633581
 7132.25000,  1.26160758
 7132.50000,  1.26476407
 7132.75000,  1.26702182
 7133.00000,  1.26702759
 7133.25000,  1.26514895
 7133.50000,  1.26296603
 7133.75000,  1.25842697
 7134.00000,  1.25346756
 7134.25000,  1.24768362
 7134.50000,  1.23977052
 7134.75000,  1.23294847
 7135.00000,  1.22435637
 7135.25000,  1.21670495
 7135.50000,  1.20760772
 7135.75000,  1.19984790
 7136.00000,  1.19167632
 7136.25000,  1.18429804
 7136.50000,  1.17729709
 7136.75000,  1.17141002
 7137.00000,  1.16544012
 7137.25000,  1.16011569
 7137.50000,  1.15522766
 7137.75000,  1.15070960
 7138.00000,  1.14593783
 7138.25000,  1.14201431
 7138.50000,  1.13754255
 7138.75000,  1.13396491
 7139.00000,  1.12951388
 7139.25000,  1.12584538
 7139.50000,  1.12189943
 7139.75000,  1.11789726
 7140.00000,  1.11396011
 7140.25000,  1.11031518
 7140.50000,  1.10654236
 7140.75000,  1.10262650
 7141.00000,  1.09906089
 7141.25000,  1.09559552
 7141.50000,  1.09242913
 7141.75000,  1.08962802
 7142.00000,  1.08620824
 7142.25000,  1.08363913
 7142.50000,  1.08090542
 7142.75000,  1.07894127
 7143.00000,  1.07678214
 7143.25000,  1.07515585
 7143.50000,  1.07398751
 7143.75000,  1.07343677
 7144.00000,  1.07250685
 7144.25000,  1.07263013
 7144.50000,  1.07247710
 7144.75000,  1.07256319
 7145.00000,  1.07288554
 7145.25000,  1.07313504
 7145.50000,  1.07341537
 7145.75000,  1.07313210
 7146.00000,  1.07293518
 7146.25000,  1.07180798
 7146.50000,  1.07146927
 7146.75000,  1.06941958
 7147.00000,  1.06699311
 7147.25000,  1.06429469
 7147.50000,  1.06152698
 7147.75000,  1.05743652
 7148.00000,  1.05235625
 7148.25000,  1.04739663
 7148.50000,  1.04173898
 7148.75000,  1.03576442
 7149.00000,  1.02913943
 7149.25000,  1.02281641
 7149.50000,  1.01597176
 7149.75000,  1.00855214
 7150.00000,  1.00128792
 7150.25000,  0.99406601
 7150.50000,  0.98775714
 7150.75000,  0.98079589
 7151.00000,  0.97396171
 7151.25000,  0.96729840
 7151.50000,  0.96155537
 7151.75000,  0.95553018
 7152.00000,  0.95014187
 7152.25000,  0.94421804
 7152.50000,  0.93964939
 7152.75000,  0.93429739
 7153.00000,  0.92993436
 7153.25000,  0.92537893
 7153.50000,  0.92116784
 7153.75000,  0.91683648
 7154.00000,  0.91316728
 7154.25000,  0.90950386
 7154.50000,  0.90571100
 7154.75000,  0.90181811
 7155.00000,  0.89855085
 7155.25000,  0.89508000
 7155.50000,  0.89178628
 7155.75000,  0.88841025
 7156.00000,  0.88552985
 7156.25000,  0.88271281
 7156.50000,  0.87998738
 7156.75000,  0.87732922
 7157.00000,  0.87473274
 7157.25000,  0.87186144
 7157.50000,  0.86988009
 7157.75000,  0.86692951
 7158.00000,  0.86468778
 7158.25000,  0.86296266
 7158.50000,  0.86092666
 7158.75000,  0.85904731
 7159.00000,  0.85733390
 7159.25000,  0.85559336
 7159.50000,  0.85443756
 7159.75000,  0.85317663
 7160.00000,  0.85230828
 7161.09473,  0.84992830
 7162.20947,  0.85074805
 7163.34326,  0.85524578
 7164.49707,  0.86371967
 7165.67041,  0.87572674
 7166.86377,  0.89044138
 7168.07617,  0.90747234
 7169.30859,  0.92526124
 7170.56006,  0.94398416
 7171.83154,  0.96255102
 7173.12305,  0.98170089
 7174.43359,  1.00077674
 7175.76367,  1.01799405
 7177.11377,  1.03020055
 7178.48340,  1.03892925
 7179.87256,  1.04588674
 7181.28174,  1.04976742
 7182.70996,  1.05086532
 7184.15820,  1.05004797
 7185.62598,  1.04769205
 7187.11328,  1.04508185
 7188.62012,  1.04241498
 7190.14648,  1.03958623
 7191.69287,  1.03691749
 7193.25879,  1.03497284
 7194.84424,  1.03313246
 7196.44922,  1.03121350
 7198.07373,  1.02800492
 7199.71826,  1.02452260
 7201.38184,  1.02001869
 7203.06543,  1.01506047
 7204.76855,  1.01001336
 7206.49170,  1.00469712
 7208.23389,  0.99917467
 7209.99609,  0.99408519
 7211.77783,  0.98913210
 7213.57910,  0.98539796
 7215.39990,  0.98276690
 7217.24023,  0.98208338
 7219.10059,  0.98350848
 7220.98047,  0.98584013
 7222.87988,  0.98852376
 7224.79883,  0.99053550
 7226.73730,  0.99070043
 7228.69580,  0.98991627
 7230.67334,  0.98782561
 7232.67090,  0.98523632
 7234.68799,  0.98186216
 7236.72510,  0.97826379
 7238.78125,  0.97571640
 7240.85742,  0.97429249
 7242.95312,  0.97409713
 7245.06836,  0.97582750
 7247.20312,  0.97852258
 7249.35742,  0.98330460
 7251.53174,  0.98892953
 7253.72559,  0.99540622
 7255.93896,  1.00173408
 7258.17188,  1.00839512
 7260.42432,  1.01383663
 7262.69678,  1.01876478
 7264.98828,  1.02205201
 7267.29980,  1.02468235
 7269.63086,  1.02560250
 7271.98193,  1.02624327
 7274.35205,  1.02700752
 7276.74219,  1.02670738
 7279.15186,  1.02658555
 7281.58105,  1.02502198
 7284.02979,  1.02251899
 7286.49805,  1.01984693
 7288.98633,  1.01584710
 7291.49414,  1.01178171
 7294.02148,  1.00688584
 7296.56836,  1.00192353
 7299.13477,  0.99743896
 7301.72119,  0.99354526
 7304.32666,  0.99049561
 7306.95215,  0.98877595
 7309.59717,  0.98861407
 7312.26221,  0.98929029
 7314.94629,  0.99144205
 7317.65039,  0.99366285
 7320.37354,  0.99660856
 7323.11670,  0.99895091
 7325.87988,  1.00089769
 7328.66211,  1.00278846
 7331.46436,  1.00387586
 7334.28564,  1.00440929
 7337.12695,  1.00430628
 7339.98828,  1.00374901
 7342.86865,  1.00297108
 7345.76855,  1.00199718
 7348.68848,  1.00107092
 7351.62793,  1.00028109
 7354.58691,  0.99942363
 7357.56543,  0.99869450
 7360.56396,  0.99857095
 7363.58154,  0.99788871
 7366.61914,  0.99783606
 7369.67627,  0.99853574
 7372.75293,  0.99929933
 7375.84961,  1.00080639
 7378.96533,  1.00252494
 7382.10107,  1.00486842
 7385.25635,  1.00651110
 7388.43115,  1.00847108
 7391.62598,  1.00994609
 7394.83984,  1.01067243
 7398.07373,  1.01094939
 7401.32715,  1.01044116
 7404.60010,  1.00901388
 7407.89258,  1.00741734
 7411.20459,  1.00477308
 7414.53662,  1.00193189
 7417.88818,  0.99986318
 7421.25928,  0.99767022
 7424.64990,  0.99577265
 7428.06006,  0.99461656
 7431.49023,  0.99367954
 7434.93994,  0.99297262
 7438.40918,  0.99247304
 7441.89795,  0.99286778
 7445.40625,  0.99312271
 7448.93457,  0.99389755
 7452.48193,  0.99397024
 7456.04932,  0.99505454
 7459.63623,  0.99615598
 7463.24316,  0.99762461
 7466.86914,  0.99906666
 7470.51514,  1.00050534
 7474.18018,  1.00204662
 7477.86523,  1.00303505
 7481.57031,  1.00354780
 7485.29443,  1.00376122
 7489.03857,  1.00372262
 7492.80176,  1.00301322
 7496.58496,  1.00252561
 7500.38770,  1.00144113
 7504.21045,  1.00053384
 7508.05225,  0.99955448
 7511.91406,  0.99856422
 7515.79541,  0.99852592
 7519.69629,  0.99811749
 7523.61670,  0.99784305
 7527.55713,  0.99820230
 7531.51660,  0.99873441
 7535.49609,  0.99909864
 7539.49512,  0.99953290
 7543.51367,  0.99974202
 7547.55176,  0.99994617
 7551.60986,  1.00024625
 7555.68750,  1.00043069
 7559.78467,  1.00022854
 7563.90137,  1.00010561
 7568.03760,  0.99992583
 7572.19385,  0.99969262
 7576.36914,  0.99926387
 7580.56445,  0.99914069
 7584.77930,  0.99867910
 7589.01367,  0.99869566
 7593.26807,  0.99810352
 7597.54199,  0.99780040
 7601.83496,  0.99736554
 7606.14795,  0.99721629
 7610.48047,  0.99728261
 7614.83301,  0.99757789
 7619.20459,  0.99784683
 7623.59619,  0.99818130
 7628.00732,  0.99859027
 7632.43799,  0.99940274
 7636.88818,  1.00010012
 7641.35840,  1.00106007
 7645.84814,  1.00137036
 7650.35742,  1.00174156
 7654.88623,  1.00195914
 7659.43457,  1.00218659
 7664.00244,  1.00236879
 7668.59033,  1.00175163
 7673.19775,  1.00164054
 7677.82471,  1.00088970
 7682.47119,  1.00173187
 7687.13721,  1.00075272
 7691.82324,  1.00051410
 7696.52832,  1.00024540
 7701.25342,  1.00010670
 7705.99805,  0.99987841
 7710.76270,  0.99992910
 7715.54639,  1.00165540
 7720.35010,  0.99868442
 7725.17334,  0.99930279
 7730.01611,  0.99954282
 7734.87842,  0.99925039
 7739.76025,  0.99946618
 7744.66211,  0.99960966
 7749.58350,  0.99984603
 7754.52441,  0.99992085
 7759.48486,  0.99997524
 7764.46484,  0.99988560
 7769.46484,  1.00009207
 7774.48438,  1.00029248
 7779.52344,  1.00034248
 7784.58203,  1.00052564
 7789.66016,  1.00045193
 7794.75781,  1.00030332
 7799.87549,  1.00035351
 7805.01270,  1.00037959
 7810.16943,  1.00042242
 7815.34570,  1.00032436
 7820.54199,  0.99997983
 7825.75732,  1.00006302
 7830.99268,  1.00015319
 7836.24756,  1.00007525
 7841.52197,  1.00008339
 7846.81592,  1.00004578
 7852.12988,  1.00004033
 7857.46338,  1.00010424
 7862.81641,  1.00022151
 7868.18896,  1.00022657
 7873.58105,  1.00024356
 7878.99268,  1.00028583
 7884.42432,  1.00023585
 7889.87549,  1.00017375
 7895.34619,  0.99996822
 7900.83643,  0.99999368
 7906.34668,  0.99973314
 7911.87598,  0.99960927
 7917.42529,  0.99954287
 7922.99414,  0.99965544
 7928.58252,  0.99948620
 7934.19043,  0.99941652
 7939.81836,  0.99944050
 7945.46582,  0.99974019
 7951.13281,  0.99950820
 7956.81934,  0.99975787
 7962.52539,  0.99993357
 7968.25098,  1.00015737
 7973.99658,  1.00015403
 7979.76172,  1.00038365
 7985.54639,  1.00044895
 7991.35059,  1.00060404
 7997.17480,  1.00054316
 8003.01807,  1.00080085
 8008.88135,  1.00089357
 8014.76416,  1.00102474
 8020.66650,  1.00109964
 8026.58838,  1.00097220
 8032.53027,  1.00069246
 8038.49170,  1.00060430
 8044.47217,  1.00054011
 8050.47314,  1.00035478
 8056.49316,  1.00035739
 8062.53271,  1.00007336
 8068.59229,  0.99978840
 8074.67139,  0.99934613
 8080.77002,  0.99907873
 8086.88818,  0.99858482
 8093.02588,  0.99846748
 8099.18359,  0.99838827
 8105.36084,  0.99825401
