#saved Fri Feb 13 17:51:08 2026
#saving x array=energy, y array=flat
#Pyrite: Pyrite
#------------------------------------------
# energy, Pyrite
 6880.00000,  2.78664e-4
 6890.23828, -2.63784e-4
 6900.47607, -2.20829e-4
 6910.71436, -1.66493e-4
 6920.95215,  1.20953e-4
 6931.19043,  3.00507e-4
 6941.42871,  2.41610e-4
 6951.66650, -3.22356e-4
 6961.90479, -8.29447e-5
 6972.14307, -3.60052e-4
 6982.38086, -3.67212e-5
 6992.61914,  7.47403e-5
 7002.85693,  2.30755e-4
 7013.09521,  4.01644e-4
 7023.33350,  8.82277e-4
 7033.57129,  0.00138081
 7043.80957,  0.00145515
 7054.04785,  0.00202080
 7064.28564,  0.00339631
 7074.52393,  0.00427120
 7084.76172,  0.00640151
 7095.00000,  0.01045550
 7095.14990,  0.01042014
 7095.30029,  0.01065647
 7095.45020,  0.01067110
 7095.60059,  0.01071582
 7095.75049,  0.01062675
 7095.90088,  0.01078833
 7096.05078,  0.01064026
 7096.20068,  0.01105072
 7096.35107,  0.01105977
 7096.50098,  0.01138803
 7096.65137,  0.01140701
 7096.80127,  0.01134246
 7096.95166,  0.01143321
 7097.10156,  0.01160797
 7097.25195,  0.01170319
 7097.40186,  0.01195244
 7097.55176,  0.01218914
 7097.70215,  0.01227486
 7097.85205,  0.01204121
 7098.00244,  0.01226098
 7098.15234,  0.01216060
 7098.30273,  0.01280840
 7098.45264,  0.01276665
 7098.60254,  0.01283204
 7098.75293,  0.01288113
 7098.90283,  0.01292978
 7099.05322,  0.01310003
 7099.20312,  0.01339980
 7099.35352,  0.01347100
 7099.50342,  0.01331138
 7099.65381,  0.01385118
 7099.80371,  0.01382448
 7099.95361,  0.01385013
 7100.10400,  0.01417827
 7100.25391,  0.01449863
 7100.40430,  0.01439568
 7100.55420,  0.01408203
 7100.70459,  0.01466292
 7100.85449,  0.01502816
 7101.00439,  0.01521498
 7101.15479,  0.01520947
 7101.30469,  0.01533757
 7101.45508,  0.01560872
 7101.60498,  0.01597096
 7101.75537,  0.01606356
 7101.90527,  0.01611412
 7102.05566,  0.01655575
 7102.20557,  0.01657701
 7102.35547,  0.01668149
 7102.50586,  0.01695409
 7102.65576,  0.01733489
 7102.80615,  0.01737898
 7102.95605,  0.01790963
 7103.10645,  0.01793501
 7103.25635,  0.01815463
 7103.40625,  0.01854779
 7103.55664,  0.01849703
 7103.70654,  0.01899799
 7103.85693,  0.01910892
 7104.00684,  0.01963509
 7104.15723,  0.01959097
 7104.30713,  0.01995102
 7104.45703,  0.02019763
 7104.60742,  0.02085656
 7104.75732,  0.02098302
 7104.90771,  0.02114726
 7105.05762,  0.02151914
 7105.20801,  0.02164017
 7105.35791,  0.02202574
 7105.50830,  0.02248705
 7105.65820,  0.02295435
 7105.80811,  0.02347435
 7105.95850,  0.02387261
 7106.10840,  0.02415312
 7106.25879,  0.02463857
 7106.40869,  0.02541002
 7106.55908,  0.02571453
 7106.70898,  0.02617846
 7106.85889,  0.02681304
 7107.00928,  0.02739974
 7107.15918,  0.02791023
 7107.30957,  0.02856870
 7107.45947,  0.02930832
 7107.60986,  0.03013566
 7107.75977,  0.03077595
 7107.91016,  0.03162943
 7108.06006,  0.03255372
 7108.20996,  0.03348500
 7108.36035,  0.03467660
 7108.51025,  0.03569686
 7108.66064,  0.03706196
 7108.81055,  0.03849931
 7108.96094,  0.04035607
 7109.11084,  0.04247682
 7109.26074,  0.04460232
 7109.41113,  0.04666863
 7109.56104,  0.05002014
 7109.71143,  0.05411300
 7109.86133,  0.05810698
 7110.01172,  0.06435683
 7110.16162,  0.07115434
 7110.31201,  0.07752464
 7110.46191,  0.08524876
 7110.61182,  0.09487029
 7110.76221,  0.10382529
 7110.91211,  0.11212984
 7111.06250,  0.12065052
 7111.21240,  0.12755812
 7111.36279,  0.13253638
 7111.51270,  0.13788091
 7111.66260,  0.14134531
 7111.81299,  0.14309408
 7111.96289,  0.14443020
 7112.11328,  0.14506268
 7112.26318,  0.14600203
 7112.41357,  0.14664159
 7112.56348,  0.14737659
 7112.71387,  0.14744920
 7112.86377,  0.14775767
 7113.01367,  0.14694361
 7113.16406,  0.14638861
 7113.31396,  0.14557855
 7113.46436,  0.14483433
 7113.61426,  0.14394735
 7113.76465,  0.14420520
 7113.91455,  0.14461657
 7114.06445,  0.14626735
 7114.21484,  0.14878927
 7114.36475,  0.15291238
 7114.51514,  0.15865816
 7114.66504,  0.16572736
 7114.81543,  0.17452987
 7114.96533,  0.18696323
 7115.11523,  0.20029345
 7115.26562,  0.21444153
 7115.41553,  0.23467260
 7115.56592,  0.25937312
 7115.71582,  0.28480300
 7115.86621,  0.31683513
 7116.01611,  0.35370722
 7116.16650,  0.38480940
 7116.31641,  0.42085541
 7116.46631,  0.46003600
 7116.61670,  0.49365126
 7116.76660,  0.52093654
 7116.91699,  0.54743360
 7117.06689,  0.56910040
 7117.21729,  0.58687498
 7117.36719,  0.60777139
 7117.51709,  0.62966972
 7117.66748,  0.64686108
 7117.81738,  0.66657336
 7117.96777,  0.68715352
 7118.11768,  0.70305557
 7118.26807,  0.72137046
 7118.41797,  0.73745520
 7118.56836,  0.75153846
 7118.71826,  0.76391392
 7118.86816,  0.77346360
 7119.01855,  0.78058496
 7119.16846,  0.78435654
 7119.31885,  0.78943105
 7119.46875,  0.79179833
 7119.61914,  0.79160440
 7119.76904,  0.79115650
 7119.91895,  0.79062177
 7120.06934,  0.79025478
 7120.21924,  0.78848524
 7120.36963,  0.78816891
 7120.51953,  0.78799520
 7120.66992,  0.79007440
 7120.81982,  0.79134077
 7120.97021,  0.79337686
 7121.12012,  0.79777007
 7121.27002,  0.80204272
 7121.42041,  0.80470901
 7121.57031,  0.80910255
 7121.72070,  0.81443424
 7121.87061,  0.81862291
 7122.02100,  0.82153898
 7122.17090,  0.82572329
 7122.32080,  0.83167753
 7122.47119,  0.83482964
 7122.62109,  0.84003136
 7122.77148,  0.84459626
 7122.92139,  0.84876238
 7123.07178,  0.85250419
 7123.22168,  0.85670480
 7123.37158,  0.86102144
 7123.52197,  0.86456976
 7123.67188,  0.86773781
 7123.82227,  0.87065103
 7123.97217,  0.87235343
 7124.12256,  0.87556284
 7124.27246,  0.87676234
 7124.42285,  0.87844630
 7124.57275,  0.87988637
 7124.72266,  0.88398116
 7124.87305,  0.88524131
 7125.02295,  0.88716991
 7125.17334,  0.89231714
 7125.32324,  0.89439592
 7125.47363,  0.89655196
 7125.62354,  0.90052600
 7125.77344,  0.90353501
 7125.92383,  0.90758621
 7126.07373,  0.91098990
 7126.22412,  0.91409885
 7126.37402,  0.91800663
 7126.52441,  0.92157153
 7126.67432,  0.92534310
 7126.82471,  0.92859544
 7126.97461,  0.93168985
 7127.12451,  0.93633116
 7127.27490,  0.93934516
 7127.42480,  0.94386644
 7127.57520,  0.94851434
 7127.72510,  0.95422260
 7127.87549,  0.95761223
 7128.02539,  0.96226594
 7128.17529,  0.96685046
 7128.32568,  0.97152441
 7128.47559,  0.97455384
 7128.62598,  0.98047345
 7128.77588,  0.98608068
 7128.92627,  0.98902301
 7129.07617,  0.99451723
 7129.22656,  0.99941418
 7129.37646,  1.00307327
 7129.52637,  1.00735798
 7129.67676,  1.01133326
 7129.82666,  1.01508613
 7129.97705,  1.02014497
 7130.12695,  1.02417855
 7130.27734,  1.02620136
 7130.42725,  1.03049647
 7130.57715,  1.03335790
 7130.72754,  1.03699427
 7130.87744,  1.04001432
 7131.02783,  1.04362356
 7131.17773,  1.04608621
 7131.32812,  1.04829176
 7131.47803,  1.05033304
 7131.62842,  1.05374540
 7131.77832,  1.05729125
 7131.92822,  1.05871741
 7132.07861,  1.06171691
 7132.22852,  1.06473882
 7132.37891,  1.06549025
 7132.52881,  1.06947778
 7132.67920,  1.07070993
 7132.82910,  1.07358849
 7132.97900,  1.07803926
 7133.12939,  1.07803077
 7133.27930,  1.08009901
 7133.42969,  1.08175685
 7133.57959,  1.08407140
 7133.72998,  1.08354670
 7133.87988,  1.08577206
 7134.02979,  1.08690682
 7134.18018,  1.08825564
 7134.33008,  1.08919491
 7134.48047,  1.09106278
 7134.63037,  1.09137904
 7134.78076,  1.09319379
 7134.93066,  1.09373445
 7135.08105,  1.09466309
 7135.23096,  1.09514699
 7135.38086,  1.09668028
 7135.53125,  1.09576128
 7135.68115,  1.09522434
 7135.83154,  1.09637199
 7135.98145,  1.09780479
 7136.13184,  1.09771232
 7136.28174,  1.09771763
 7136.43164,  1.09863987
 7136.58203,  1.09782539
 7136.73193,  1.09745477
 7136.88232,  1.09597503
 7137.03223,  1.09657959
 7137.18262,  1.09788337
 7137.33252,  1.09456336
 7137.48291,  1.09570330
 7137.63281,  1.09600807
 7137.78271,  1.09536276
 7137.93311,  1.09420300
 7138.08301,  1.09313945
 7138.23340,  1.09398507
 7138.38330,  1.09272404
 7138.53369,  1.09066434
 7138.68359,  1.09186612
 7138.83350,  1.09065992
 7138.98389,  1.08953758
 7139.13379,  1.08870649
 7139.28418,  1.08776702
 7139.43408,  1.08713373
 7139.58447,  1.08627630
 7139.73438,  1.08484817
 7139.88477,  1.08485752
 7140.03467,  1.08428958
 7140.18457,  1.08198967
 7140.33496,  1.08249156
 7140.48486,  1.08127365
 7140.63525,  1.08073202
 7140.78516,  1.07851650
 7140.93555,  1.07867122
 7141.08545,  1.07578809
 7141.23535,  1.07587109
 7141.38574,  1.07376463
 7141.53564,  1.07211063
 7141.68604,  1.07121809
 7141.83594,  1.06978746
 7141.98633,  1.06801846
 7142.13623,  1.06545688
 7142.28613,  1.06372637
 7142.43652,  1.06114939
 7142.58643,  1.05805614
 7142.73682,  1.05770087
 7142.88672,  1.05563189
 7143.03711,  1.05182323
 7143.18701,  1.05014127
 7143.33740,  1.04719523
 7143.48730,  1.04468436
 7143.63721,  1.04284698
 7143.78760,  1.04157812
 7143.93750,  1.03932345
 7144.08789,  1.03650749
 7144.23779,  1.03462655
 7144.38818,  1.03119219
 7144.53809,  1.02924588
 7144.68799,  1.02702778
 7144.83838,  1.02590029
 7144.98828,  1.02298608
 7145.13867,  1.02189577
 7145.28857,  1.02067292
 7145.43896,  1.01794460
 7145.58887,  1.01584607
 7145.73926,  1.01525064
 7145.88916,  1.01301885
 7146.03906,  1.01315862
 7146.18945,  1.00888581
 7146.33936,  1.00949091
 7146.48975,  1.00826645
 7146.63965,  1.00532219
 7146.79004,  1.00491316
 7146.93994,  1.00299588
 7147.08984,  1.00195061
 7147.24023,  1.00011755
 7147.39014,  0.99856817
 7147.54053,  0.99653901
 7147.69043,  0.99768094
 7147.84082,  0.99558372
 7147.99072,  0.99253677
 7148.14111,  0.99220504
 7148.29102,  0.99214196
 7148.44092,  0.99024253
 7148.59131,  0.98874578
 7148.74121,  0.98832720
 7148.89160,  0.98714602
 7149.04150,  0.98408062
 7149.19189,  0.98265833
 7149.34180,  0.98253924
 7149.49170,  0.98276988
 7149.64209,  0.98010826
 7149.79199,  0.97781993
 7149.94238,  0.97757027
 7150.09229,  0.97568409
 7150.24268,  0.97357140
 7150.39258,  0.97418131
 7150.54297,  0.97298105
 7150.69287,  0.97165848
 7150.84277,  0.96991142
 7150.99316,  0.96846456
 7151.14307,  0.96810578
 7151.29346,  0.96767251
 7151.44336,  0.96492278
 7151.59375,  0.96461561
 7151.74365,  0.96383128
 7151.89355,  0.96366890
 7152.04395,  0.96165227
 7152.19385,  0.96192359
 7152.34424,  0.96091647
 7152.49414,  0.95894537
 7152.64453,  0.95877436
 7152.79443,  0.95773064
 7152.94434,  0.95803756
 7153.09473,  0.95619768
 7153.24463,  0.95651155
 7153.39502,  0.95717568
 7153.54492,  0.95555725
 7153.69531,  0.95453279
 7153.84521,  0.95407100
 7153.99561,  0.95411367
 7154.14551,  0.95345093
 7154.29541,  0.95408574
 7154.44580,  0.95259851
 7154.59570,  0.95289547
 7154.74609,  0.95189879
 7154.89600,  0.95128191
 7155.04639,  0.95131437
 7155.19629,  0.95154456
 7155.34619,  0.94963690
 7155.49658,  0.94930943
 7155.64648,  0.94861830
 7155.79688,  0.94869419
 7155.94678,  0.94757604
 7156.09717,  0.94551235
 7156.24707,  0.94528376
 7156.39746,  0.94487734
 7156.54736,  0.94434471
 7156.69727,  0.94360644
 7156.84766,  0.94293240
 7156.99756,  0.94260270
 7157.14795,  0.94139099
 7157.29785,  0.93981658
 7157.44824,  0.93865562
 7157.59814,  0.93839143
 7157.74805,  0.93607988
 7157.89844,  0.93537947
 7158.04834,  0.93355793
 7158.19873,  0.93271687
 7158.34863,  0.93162793
 7158.49902,  0.93033864
 7158.64893,  0.93027189
 7158.79932,  0.92748384
 7158.94922,  0.92534538
 7159.09912,  0.92456009
 7159.24951,  0.92331258
 7159.39941,  0.92279993
 7159.54980,  0.92134235
 7159.69971,  0.92061570
 7159.85010,  0.92074838
 7160.00000,  0.91837930
 7161.09082,  0.91310244
 7162.20068,  0.91300827
 7163.33057,  0.91759238
 7164.47949,  0.92716759
 7165.64795,  0.93612091
 7166.83594,  0.94645971
 7168.04346,  0.95278909
 7169.27051,  0.95840336
 7170.51660,  0.96363156
 7171.78271,  0.96785485
 7173.06787,  0.97408132
 7174.37305,  0.98126982
 7175.69727,  0.98991391
 7177.04102,  0.99809970
 7178.40430,  1.00704329
 7179.78711,  1.01339637
 7181.18896,  1.01863506
 7182.61084,  1.02143398
 7184.05176,  1.02653242
 7185.51270,  1.03113959
 7186.99268,  1.03681700
 7188.49219,  1.04038102
 7190.01123,  1.04802439
 7191.54980,  1.03206890
 7193.10791,  1.06954774
 7194.68506,  1.07899354
 7196.28223,  1.07159213
 7197.89844,  1.08032132
 7199.53418,  1.08104154
 7201.18994,  1.07769739
 7202.86475,  1.06544075
 7204.55908,  1.04556358
 7206.27246,  1.02968289
 7208.00586,  1.01621220
 7209.75879,  1.00119391
 7211.53076,  0.98838793
 7213.32227,  0.97479124
 7215.13330,  0.96171241
 7216.96436,  0.95217439
 7218.81396,  0.94273500
 7220.68359,  0.93838258
 7222.57275,  0.93901621
 7224.48145,  0.94161766
 7226.40918,  0.95016821
 7228.35645,  0.96106591
 7230.32373,  0.96982383
 7232.31006,  0.97515910
 7234.31592,  0.98328418
 7236.34131,  0.98934146
 7238.38574,  0.99620120
 7240.45020,  1.00525921
 7242.53369,  1.01182772
 7244.63721,  1.02008903
 7246.75977,  1.02879920
 7248.90186,  1.03601486
 7251.06348,  1.03653084
 7253.24463,  1.03084617
 7255.44531,  1.02201883
 7257.66553,  1.01445684
 7259.90479,  1.01055982
 7262.16357,  1.01312335
 7264.44238,  1.01739479
 7266.74023,  1.02370492
 7269.05762,  1.03209127
 7271.39453,  1.03684296
 7273.75098,  1.03981291
 7276.12646,  1.03720344
 7278.52197,  1.03433272
 7280.93701,  1.02915789
 7283.37109,  1.02382050
 7285.82471,  1.02067764
 7288.29785,  1.01806634
 7290.79053,  1.01556216
 7293.30273,  1.01213947
 7295.83447,  1.00622298
 7298.38525,  0.99607083
 7300.95605,  0.98599079
 7303.54590,  0.97890041
 7306.15527,  0.97653473
 7308.78467,  0.97741110
 7311.43311,  0.97826794
 7314.10059,  0.97792927
 7316.78809,  0.97700465
 7319.49512,  0.97794277
 7322.22119,  0.98236833
 7324.96729,  0.99086107
 7327.73242,  1.00006892
 7330.51709,  1.00932634
 7333.32129,  1.01716808
 7336.14502,  1.02282542
 7338.98828,  1.02433353
 7341.85107,  1.02343675
 7344.73291,  1.01953534
 7347.63477,  1.01572471
 7350.55566,  1.01283462
 7353.49609,  1.01032198
 7356.45605,  1.01066198
 7359.43555,  1.01242259
 7362.43457,  1.01653287
 7365.45312,  1.01567083
 7368.49121,  1.01776557
 7371.54834,  1.01470115
 7374.62500,  1.00867218
 7377.72168,  1.00521786
 7380.83740,  1.00412229
 7383.97266,  1.00402867
 7387.12744,  1.00246388
 7390.30176,  1.00418898
 7393.49512,  1.00445815
 7396.70850,  1.00178826
 7399.94092,  0.99742394
 7403.19287,  0.99056908
 7406.46484,  0.98566928
 7409.75586,  0.98596128
 7413.06641,  0.98857740
 7416.39600,  0.99050423
 7419.74561,  0.99326639
 7423.11475,  0.99355086
 7426.50293,  0.99345095
 7429.91064,  0.99259652
 7433.33838,  0.99291543
 7436.78516,  0.99530204
 7440.25146,  0.99836434
 7443.73682,  1.00304690
 7447.24219,  1.00791961
 7450.76709,  1.01206645
 7454.31104,  1.01548244
 7457.87500,  1.01507141
 7461.45801,  1.01362020
 7465.06055,  1.01213955
 7468.68262,  1.01078316
 7472.32422,  1.00888191
 7475.98535,  1.00566926
 7479.66553,  1.00248949
 7483.36572,  1.00085863
 7487.08496,  1.00058836
 7490.82422,  0.99963171
 7494.58252,  0.99939072
 7498.36035,  1.00105465
 7502.15771,  1.00339099
 7505.97412,  1.00264389
 7509.81055,  1.00203245
 7513.66650,  1.00170745
 7517.54150,  1.00312705
 7521.43604,  1.00100960
 7525.35059,  0.99822582
 7529.28418,  0.99388658
 7533.23730,  0.99263192
 7537.20996,  0.99434670
 7541.20166,  0.99522943
 7545.21338,  0.99766631
 7549.24414,  0.99770657
 7553.29492,  0.99720257
 7557.36475,  0.99489330
 7561.45410,  0.99534828
 7565.56299,  0.99717222
 7569.69141,  0.99937771
 7573.83936,  1.00173289
 7578.00635,  1.00428252
 7582.19336,  1.00703113
 7586.39941,  1.01051330
 7590.62500,  1.01291369
 7594.87061,  1.01202074
 7599.13525,  1.00932039
 7603.41943,  1.00696959
 7607.72266,  1.00513528
 7612.04590,  1.00266517
 7616.38867,  1.00090225
 7620.75049,  0.99940491
 7625.13184,  0.99836841
 7629.53320,  0.99743699
 7633.95361,  0.99508299
 7638.39355,  0.99585420
 7642.85254,  0.99560549
 7647.33154,  0.99769914
 7651.83008,  0.99864074
 7656.34766,  1.00021309
 7660.88525,  1.00224305
 7665.44189,  1.00235129
 7670.01807,  1.00122571
 7674.61377,  1.00010774
 7679.22900,  0.99859525
 7683.86328,  0.97931604
 7688.51758,  1.01237926
 7693.19141,  0.98665753
 7697.88428,  0.99847366
 7702.59668,  0.99563518
 7707.32861,  1.00743390
 7712.08008,  0.97476609
 7716.85107,  1.00112379
 7721.64160,  0.99975515
 7726.45166,  1.00120095
 7731.28076,  1.00100678
 7736.12988,  1.00204169
 7740.99805,  1.00320332
 7745.88574,  1.00540066
 7750.79297,  1.00593859
 7755.71973,  1.00498114
 7760.66602,  1.00446957
 7765.63184,  1.00453488
 7770.61670,  1.00195845
 7775.62158,  1.00133368
 7780.64551,  0.99919154
 7785.68945,  0.99723325
 7790.75244,  0.99705900
 7795.83496,  0.99712903
 7800.93652,  0.99687057
 7806.05811,  0.99720958
 7811.19922,  0.99723589
 7816.35938,  0.99805801
 7821.53955,  0.99890150
 7826.73877,  0.99884181
 7831.95752,  1.00058587
 7837.19580,  1.00049864
 7842.45361,  1.00023317
 7847.73096,  1.00071227
 7853.02783,  0.99976992
 7858.34375,  0.99964038
 7863.67920,  0.99859424
 7869.03467,  0.99901159
 7874.40918,  0.99985423
 7879.80322,  0.99886467
 7885.21680,  0.99723059
 7890.64990,  0.99925718
 7896.10254,  0.99817803
 7901.57422,  0.99677896
 7907.06592,  0.99882225
 7912.57666,  0.99862638
 7918.10693,  0.99935576
 7923.65674,  0.99945107
 7929.22607,  0.99816841
 7934.81494,  0.99826255
 7940.42334,  0.99881004
 7946.05078,  0.99791094
 7951.69824,  0.99811019
 7957.36475,  0.99923929
 7963.05127,  0.99940689
 7968.75684,  1.00032496
 7974.48193,  0.99916496
 7980.22656,  0.99911067
 7985.99023,  0.99915059
 7991.77393,  0.99905378
 7997.57715,  0.99919903
 8003.39941,  0.99948694
 8009.24121,  0.99973253
 8015.10254,  1.00022951
 8020.98389,  1.00127600
 8026.88379,  1.00156464
 8032.80371,  1.00194997
 8038.74316,  1.00127587
 8044.70215,  1.00212118
 8050.68018,  1.00243317
 8056.67773,  1.00225669
 8062.69531,  1.00229747
 8068.73193,  1.00154881
 8074.78809,  1.00099266
 8080.86377,  1.00185097
 8086.95850,  1.00108730
 8093.07324,  1.00158762
 8099.20703,  1.00058331
 8105.36084,  1.00105994
