#saved Fri Feb 13 17:51:08 2026
#saving x array=energy, y array=flat
#Pyrrhotite: Pyrrhotite
#------------------------------------------
# energy, Pyrrhotite
 6880.00000,  3.42951e-4
 6890.23828,  2.91919e-4
 6900.47607,  2.28716e-4
 6910.71436,  1.60150e-4
 6920.95215, -3.51188e-4
 6931.19043,  2.01842e-4
 6941.42871,  9.08642e-5
 6951.66650, -1.26201e-5
 6961.90479, -5.84239e-5
 6972.14307, -3.01552e-5
 6982.38086, -6.48595e-5
 6992.61914, -7.29327e-5
 7002.85693,  1.37324e-4
 7013.09521,  2.65681e-4
 7023.33350,  5.24593e-4
 7033.57129,  8.50499e-4
 7043.80957,  0.00116767
 7054.04785,  0.00194333
 7064.28564,  0.00253281
 7074.52393,  0.00384296
 7084.76172,  0.00625023
 7095.00000,  0.01082659
 7095.25000,  0.01099288
 7095.50000,  0.01117557
 7095.75000,  0.01149537
 7096.00000,  0.01163566
 7096.25000,  0.01179563
 7096.50000,  0.01205465
 7096.75000,  0.01225221
 7097.00000,  0.01238566
 7097.25000,  0.01274044
 7097.50000,  0.01289138
 7097.75000,  0.01316284
 7098.00000,  0.01334054
 7098.25000,  0.01364385
 7098.50000,  0.01390947
 7098.75000,  0.01413903
 7099.00000,  0.01446733
 7099.25000,  0.01468898
 7099.50000,  0.01489654
 7099.75000,  0.01526379
 7100.00000,  0.01555922
 7100.25000,  0.01589409
 7100.50000,  0.01617563
 7100.75000,  0.01651322
 7101.00000,  0.01686235
 7101.25000,  0.01728679
 7101.50000,  0.01751264
 7101.75000,  0.01788910
 7102.00000,  0.01828911
 7102.25000,  0.01874435
 7102.50000,  0.01901331
 7102.75000,  0.01953256
 7103.00000,  0.01996846
 7103.25000,  0.02047154
 7103.50000,  0.02101008
 7103.75000,  0.02159031
 7104.00000,  0.02207252
 7104.25000,  0.02275987
 7104.50000,  0.02332228
 7104.75000,  0.02385140
 7105.00000,  0.02456874
 7105.25000,  0.02521695
 7105.50000,  0.02591559
 7105.75000,  0.02679805
 7106.00000,  0.02758005
 7106.25000,  0.02860339
 7106.50000,  0.02948226
 7106.75000,  0.03066959
 7107.00000,  0.03178668
 7107.25000,  0.03295377
 7107.50000,  0.03425787
 7107.75000,  0.03591809
 7108.00000,  0.03738326
 7108.25000,  0.03948050
 7108.50000,  0.04153338
 7108.75000,  0.04425384
 7109.00000,  0.04706871
 7109.25000,  0.05065231
 7109.50000,  0.05485405
 7109.75000,  0.06034143
 7110.00000,  0.06638362
 7110.25000,  0.07382791
 7110.50000,  0.08201178
 7110.75000,  0.09142208
 7111.00000,  0.10122268
 7111.25000,  0.11140238
 7111.50000,  0.12096213
 7111.75000,  0.13028319
 7112.00000,  0.13868723
 7112.25000,  0.14555746
 7112.50000,  0.15197308
 7112.75000,  0.15797722
 7113.00000,  0.16418120
 7113.25000,  0.16992447
 7113.50000,  0.17720885
 7113.75000,  0.18532761
 7114.00000,  0.19578749
 7114.25000,  0.20728558
 7114.50000,  0.22260993
 7114.75000,  0.23929519
 7115.00000,  0.26146931
 7115.25000,  0.28337657
 7115.50000,  0.31223561
 7115.75000,  0.34077309
 7116.00000,  0.37601516
 7116.25000,  0.40809155
 7116.50000,  0.44858825
 7116.75000,  0.48480550
 7117.00000,  0.52546306
 7117.25000,  0.56045492
 7117.50000,  0.60185109
 7117.75000,  0.63884834
 7118.00000,  0.67697333
 7118.25000,  0.70953635
 7118.50000,  0.74432600
 7118.75000,  0.77309241
 7119.00000,  0.80274610
 7119.25000,  0.82638199
 7119.50000,  0.85025673
 7119.75000,  0.86835036
 7120.00000,  0.88487736
 7120.25000,  0.89837470
 7120.50000,  0.90923633
 7120.75000,  0.91818027
 7121.00000,  0.92500746
 7121.25000,  0.93000594
 7121.50000,  0.93427922
 7121.75000,  0.93795438
 7122.00000,  0.94100315
 7122.25000,  0.94423970
 7122.50000,  0.94822701
 7122.75000,  0.95253397
 7123.00000,  0.95722842
 7123.25000,  0.96264524
 7123.50000,  0.96871940
 7123.75000,  0.97472403
 7124.00000,  0.98066650
 7124.25000,  0.98736252
 7124.50000,  0.99298591
 7124.75000,  0.99887818
 7125.00000,  1.00350702
 7125.25000,  1.00828200
 7125.50000,  1.01178505
 7125.75000,  1.01527514
 7126.00000,  1.01866203
 7126.25000,  1.02175401
 7126.50000,  1.02358700
 7126.75000,  1.02597985
 7127.00000,  1.02832150
 7127.25000,  1.03118521
 7127.50000,  1.03364005
 7127.75000,  1.03564397
 7128.00000,  1.03832428
 7128.25000,  1.04155979
 7128.50000,  1.04328460
 7128.75000,  1.04645356
 7129.00000,  1.04760624
 7129.25000,  1.04944878
 7129.50000,  1.05047671
 7129.75000,  1.05130066
 7130.00000,  1.05132358
 7130.25000,  1.05098279
 7130.50000,  1.05038935
 7130.75000,  1.04959711
 7131.00000,  1.04835954
 7131.25000,  1.04757275
 7131.50000,  1.04573954
 7131.75000,  1.04501870
 7132.00000,  1.04361481
 7132.25000,  1.04256402
 7132.50000,  1.04071416
 7132.75000,  1.03970342
 7133.00000,  1.03877439
 7133.25000,  1.03796053
 7133.50000,  1.03668208
 7133.75000,  1.03572078
 7134.00000,  1.03484233
 7134.25000,  1.03426199
 7134.50000,  1.03353091
 7134.75000,  1.03300998
 7135.00000,  1.03225949
 7135.25000,  1.03202028
 7135.50000,  1.03197682
 7135.75000,  1.03173509
 7136.00000,  1.03172568
 7136.25000,  1.03121531
 7136.50000,  1.03132955
 7136.75000,  1.03105429
 7137.00000,  1.03053133
 7137.25000,  1.03022455
 7137.50000,  1.03083550
 7137.75000,  1.03050755
 7138.00000,  1.02939254
 7138.25000,  1.02914431
 7138.50000,  1.02843428
 7138.75000,  1.02746082
 7139.00000,  1.02714138
 7139.25000,  1.02673843
 7139.50000,  1.02572162
 7139.75000,  1.02509934
 7140.00000,  1.02414092
 7140.25000,  1.02404274
 7140.50000,  1.02322288
 7140.75000,  1.02282272
 7141.00000,  1.02243974
 7141.25000,  1.02134563
 7141.50000,  1.02099307
 7141.75000,  1.01988940
 7142.00000,  1.01945849
 7142.25000,  1.01873681
 7142.50000,  1.01801500
 7142.75000,  1.01697600
 7143.00000,  1.01530460
 7143.25000,  1.01467980
 7143.50000,  1.01337039
 7143.75000,  1.01227662
 7144.00000,  1.01064990
 7144.25000,  1.00881630
 7144.50000,  1.00743151
 7144.75000,  1.00607167
 7145.00000,  1.00412284
 7145.25000,  1.00273903
 7145.50000,  1.00115436
 7145.75000,  0.99923789
 7146.00000,  0.99759176
 7146.25000,  0.99593401
 7146.50000,  0.99412822
 7146.75000,  0.99253217
 7147.00000,  0.99081128
 7147.25000,  0.98856748
 7147.50000,  0.98716394
 7147.75000,  0.98551313
 7148.00000,  0.98349581
 7148.25000,  0.98148801
 7148.50000,  0.97967887
 7148.75000,  0.97782341
 7149.00000,  0.97571590
 7149.25000,  0.97387211
 7149.50000,  0.97193849
 7149.75000,  0.96966354
 7150.00000,  0.96746492
 7150.25000,  0.96561183
 7150.50000,  0.96351013
 7150.75000,  0.96111972
 7151.00000,  0.95889202
 7151.25000,  0.95674116
 7151.50000,  0.95461805
 7151.75000,  0.95264543
 7152.00000,  0.95089073
 7152.25000,  0.94841216
 7152.50000,  0.94712501
 7152.75000,  0.94493064
 7153.00000,  0.94304183
 7153.25000,  0.94147391
 7153.50000,  0.93996595
 7153.75000,  0.93856704
 7154.00000,  0.93691433
 7154.25000,  0.93597303
 7154.50000,  0.93468387
 7154.75000,  0.93351909
 7155.00000,  0.93254251
 7155.25000,  0.93183679
 7155.50000,  0.93133407
 7155.75000,  0.93065752
 7156.00000,  0.93027400
 7156.25000,  0.93044256
 7156.50000,  0.92991688
 7156.75000,  0.92988445
 7157.00000,  0.93005047
 7157.25000,  0.93026123
 7157.50000,  0.93036776
 7157.75000,  0.93086613
 7158.00000,  0.93124049
 7158.25000,  0.93190290
 7158.50000,  0.93222223
 7158.75000,  0.93291537
 7159.00000,  0.93415646
 7159.25000,  0.93469501
 7159.50000,  0.93589908
 7159.75000,  0.93674670
 7160.00000,  0.93809192
 7161.09473,  0.94358411
 7162.20947,  0.95036066
 7163.34326,  0.95776262
 7164.49707,  0.96561193
 7165.67041,  0.97438060
 7166.86377,  0.98308871
 7168.07617,  0.99171136
 7169.30859,  1.00076492
 7170.56006,  1.01051588
 7171.83154,  1.01899518
 7173.12305,  1.02530039
 7174.43359,  1.03077703
 7175.76367,  1.03433093
 7177.11377,  1.03670486
 7178.48340,  1.03782878
 7179.87256,  1.03719449
 7181.28174,  1.03525079
 7182.70996,  1.03219238
 7184.15820,  1.02754184
 7185.62598,  1.02302993
 7187.11328,  1.01880102
 7188.62012,  1.01395318
 7190.14648,  1.00908043
 7191.69287,  1.00427214
 7193.25879,  0.99919031
 7194.84424,  0.99386555
 7196.44922,  0.98880312
 7198.07373,  0.98399182
 7199.71826,  0.97982523
 7201.38184,  0.97616660
 7203.06543,  0.97304584
 7204.76855,  0.97125202
 7206.49170,  0.97023985
 7208.23389,  0.97029684
 7209.99609,  0.97118038
 7211.77783,  0.97241353
 7213.57910,  0.97478806
 7215.39990,  0.97743809
 7217.24023,  0.98039029
 7219.10059,  0.98419738
 7220.98047,  0.98744621
 7222.87988,  0.99096607
 7224.79883,  0.99453679
 7226.73730,  0.99773396
 7228.69580,  1.00118226
 7230.67334,  1.00433309
 7232.67090,  1.00781350
 7234.68799,  1.01134958
 7236.72510,  1.01438268
 7238.78125,  1.01636790
 7240.85742,  1.01768205
 7242.95312,  1.01780718
 7245.06836,  1.01714649
 7247.20312,  1.01624658
 7249.35742,  1.01452992
 7251.53174,  1.01273711
 7253.72559,  1.01081217
 7255.93896,  1.00813149
 7258.17188,  1.00602101
 7260.42432,  1.00339504
 7262.69678,  1.00080739
 7264.98828,  0.99849068
 7267.29980,  0.99732545
 7269.63086,  0.99608977
 7271.98193,  0.99563403
 7274.35205,  0.99597529
 7276.74219,  0.99603042
 7279.15186,  0.99631939
 7281.58105,  0.99657075
 7284.02979,  0.99660144
 7286.49805,  0.99680100
 7288.98633,  0.99677679
 7291.49414,  0.99693338
 7294.02148,  0.99715648
 7296.56836,  0.99735881
 7299.13477,  0.99819283
 7301.72119,  0.99865765
 7304.32666,  0.99984159
 7306.95215,  1.00105391
 7309.59717,  1.00231714
 7312.26221,  1.00331820
 7314.94629,  1.00460523
 7317.65039,  1.00549690
 7320.37354,  1.00629099
 7323.11670,  1.00684344
 7325.87988,  1.00713049
 7328.66211,  1.00712114
 7331.46436,  1.00639043
 7334.28564,  1.00590415
 7337.12695,  1.00493982
 7339.98828,  1.00383592
 7342.86865,  1.00297984
 7345.76855,  1.00220017
 7348.68848,  1.00174930
 7351.62793,  1.00128474
 7354.58691,  1.00052624
 7357.56543,  1.00013866
 7360.56396,  0.99919828
 7363.58154,  0.99906307
 7366.61914,  0.99888604
 7369.67627,  0.99855559
 7372.75293,  0.99802786
 7375.84961,  0.99757604
 7378.96533,  0.99760916
 7382.10107,  0.99776697
 7385.25635,  0.99793425
 7388.43115,  0.99823133
 7391.62598,  0.99858290
 7394.83984,  0.99889773
 7398.07373,  0.99936266
 7401.32715,  0.99991470
 7404.60010,  1.00017456
 7407.89258,  1.00062697
 7411.20459,  1.00132573
 7414.53662,  1.00161218
 7417.88818,  1.00206211
 7421.25928,  1.00233685
 7424.64990,  1.00242453
 7428.06006,  1.00259400
 7431.49023,  1.00212050
 7434.93994,  1.00194103
 7438.40918,  1.00159323
 7441.89795,  1.00136397
 7445.40625,  1.00097838
 7448.93457,  1.00051137
 7452.48193,  0.99995363
 7456.04932,  0.99974660
 7459.63623,  0.99941699
 7463.24316,  0.99885614
 7466.86914,  0.99842941
 7470.51514,  0.99839945
 7474.18018,  0.99819605
 7477.86523,  0.99832395
 7481.57031,  0.99776028
 7485.29443,  0.99794872
 7489.03857,  0.99786738
 7492.80176,  0.99809426
 7496.58496,  0.99830884
 7500.38770,  0.99859522
 7504.21045,  0.99889320
 7508.05225,  0.99927645
 7511.91406,  0.99950420
 7515.79541,  0.99999324
 7519.69629,  1.00015258
 7523.61670,  1.00016372
 7527.55713,  1.00040091
 7531.51660,  1.00047769
 7535.49609,  1.00039889
 7539.49512,  1.00026497
 7543.51367,  1.00027938
 7547.55176,  1.00011631
 7551.60986,  0.99980629
 7555.68750,  0.99963655
 7559.78467,  0.99948136
 7563.90137,  0.99914737
 7568.03760,  0.99917585
 7572.19385,  0.99904553
 7576.36914,  0.99882555
 7580.56445,  0.99879697
 7584.77930,  0.99873115
 7589.01367,  0.99866987
 7593.26807,  0.99866201
 7597.54199,  0.99879663
 7601.83496,  0.99878087
 7606.14795,  0.99887260
 7610.48047,  0.99894406
 7614.83301,  0.99912752
 7619.20459,  0.99939608
 7623.59619,  0.99973650
 7628.00732,  1.00005430
 7632.43799,  0.99997692
 7636.88818,  1.00016411
 7641.35840,  1.00031431
 7645.84814,  1.00018553
 7650.35742,  1.00023315
 7654.88623,  1.00041858
 7659.43457,  1.00071324
 7664.00244,  1.00060163
 7668.59033,  1.00014856
 7673.19775,  1.00017822
 7677.82471,  1.00035422
 7682.47119,  1.00023457
 7687.13721,  1.00024410
 7691.82324,  1.00034663
 7696.52832,  1.00015065
 7701.25342,  1.00010262
 7705.99805,  1.00045154
 7710.76270,  1.00005234
 7715.54639,  1.00029952
 7720.35010,  1.00046759
 7725.17334,  1.00019988
 7730.01611,  1.00036891
 7734.87842,  1.00038531
 7739.76025,  1.00008429
 7744.66211,  1.00018552
 7749.58350,  1.00034176
 7754.52441,  1.00022706
 7759.48486,  1.00025319
 7764.46484,  1.00039013
 7769.46484,  1.00033525
 7774.48438,  1.00044799
 7779.52344,  1.00044681
 7784.58203,  1.00042384
 7789.66016,  1.00055693
 7794.75781,  1.00068277
 7799.87549,  1.00056345
 7805.01270,  1.00066344
 7810.16943,  1.00038115
 7815.34570,  1.00040035
 7820.54199,  1.00049537
 7825.75732,  1.00028386
 7830.99268,  1.00025489
 7836.24756,  1.00011801
 7841.52197,  1.00019124
 7846.81592,  1.00005933
 7852.12988,  0.99995092
 7857.46338,  0.99987387
 7862.81641,  0.99972452
 7868.18896,  0.99955115
 7873.58105,  0.99941645
 7878.99268,  0.99930582
 7884.42432,  0.99934183
 7889.87549,  0.99928592
 7895.34619,  0.99922823
 7900.83643,  0.99943942
 7906.34668,  0.99926685
 7911.87598,  0.99958631
 7917.42529,  0.99935453
 7922.99414,  0.99966038
 7928.58252,  0.99949539
 7934.19043,  0.99986132
 7939.81836,  0.99986280
 7945.46582,  1.00016290
 7951.13281,  1.00021675
 7956.81934,  1.00021197
 7962.52539,  1.00026240
 7968.25098,  1.00032951
 7973.99658,  1.00044015
 7979.76172,  1.00021250
 7985.54639,  1.00016979
 7991.35059,  1.00020024
 7997.17480,  1.00011483
 8003.01807,  1.00018992
 8008.88135,  1.00008411
 8014.76416,  1.00027037
 8020.66650,  1.00044261
 8026.58838,  1.00040464
 8032.53027,  1.00038198
 8038.49170,  1.00048743
 8044.47217,  1.00043533
 8050.47314,  1.00047373
 8056.49316,  1.00031822
 8062.53271,  0.99997066
 8068.59229,  1.00007089
 8074.67139,  0.99968903
 8080.77002,  0.99964300
 8086.88818,  0.99962215
 8093.02588,  0.99956318
 8099.18359,  0.99938726
 8105.36084,  0.99937512
