#saved Fri Feb 13 17:51:08 2026
#saving x array=energy, y array=flat
#Siderite-s: Siderite-s
#------------------------------------------
# energy, Siderite-s
 6880.00000,  4.41388e-4
 6890.23828,  3.68546e-4
 6900.47607,  2.39914e-4
 6910.71436,  1.65548e-4
 6920.95215,  8.27529e-5
 6931.19043,  1.07813e-5
 6941.42871, -6.34505e-5
 6951.66650, -5.59618e-5
 6961.90479, -1.46503e-4
 6972.14307, -1.58701e-4
 6982.38086, -1.06393e-4
 6992.61914, -5.05005e-5
 7002.85693,  8.09096e-5
 7013.09521,  2.41518e-4
 7023.33350,  4.01413e-4
 7033.57129,  7.14035e-4
 7043.80957,  0.00104787
 7054.04785,  0.00172754
 7064.28564,  0.00267512
 7074.52393,  0.00400107
 7084.76172,  0.00628105
 7095.00000,  0.01077854
 7095.25000,  0.01095189
 7095.50000,  0.01113584
 7095.75000,  0.01126327
 7096.00000,  0.01148426
 7096.25000,  0.01164423
 7096.50000,  0.01188404
 7096.75000,  0.01198487
 7097.00000,  0.01216002
 7097.25000,  0.01243923
 7097.50000,  0.01253393
 7097.75000,  0.01280954
 7098.00000,  0.01296801
 7098.25000,  0.01321126
 7098.50000,  0.01343083
 7098.75000,  0.01366922
 7099.00000,  0.01391090
 7099.25000,  0.01409552
 7099.50000,  0.01433921
 7099.75000,  0.01459874
 7100.00000,  0.01490368
 7100.25000,  0.01508200
 7100.50000,  0.01536335
 7100.75000,  0.01564941
 7101.00000,  0.01594159
 7101.25000,  0.01621477
 7101.50000,  0.01653317
 7101.75000,  0.01683229
 7102.00000,  0.01713021
 7102.25000,  0.01751068
 7102.50000,  0.01778058
 7102.75000,  0.01821007
 7103.00000,  0.01850590
 7103.25000,  0.01897870
 7103.50000,  0.01928605
 7103.75000,  0.01971503
 7104.00000,  0.02002584
 7104.25000,  0.02051005
 7104.50000,  0.02094108
 7104.75000,  0.02138408
 7105.00000,  0.02183440
 7105.25000,  0.02233268
 7105.50000,  0.02285308
 7105.75000,  0.02353669
 7106.00000,  0.02392286
 7106.25000,  0.02463544
 7106.50000,  0.02513232
 7106.75000,  0.02588399
 7107.00000,  0.02651111
 7107.25000,  0.02734739
 7107.50000,  0.02808353
 7107.75000,  0.02879924
 7108.00000,  0.02975797
 7108.25000,  0.03075030
 7108.50000,  0.03178254
 7108.75000,  0.03290787
 7109.00000,  0.03408674
 7109.25000,  0.03551801
 7109.50000,  0.03729658
 7109.75000,  0.03919798
 7110.00000,  0.04168658
 7110.25000,  0.04462062
 7110.50000,  0.04839953
 7110.75000,  0.05240067
 7111.00000,  0.05732057
 7111.25000,  0.06192454
 7111.50000,  0.06688386
 7111.75000,  0.07101334
 7112.00000,  0.07503842
 7112.25000,  0.07837893
 7112.50000,  0.08192890
 7112.75000,  0.08502452
 7113.00000,  0.08791035
 7113.25000,  0.08995981
 7113.50000,  0.09171368
 7113.75000,  0.09292981
 7114.00000,  0.09472641
 7114.25000,  0.09599299
 7114.50000,  0.09757308
 7114.75000,  0.09913757
 7115.00000,  0.10149922
 7115.25000,  0.10416804
 7115.50000,  0.10863162
 7115.75000,  0.11424824
 7116.00000,  0.12265385
 7116.25000,  0.13223938
 7116.50000,  0.14497410
 7116.75000,  0.15892884
 7117.00000,  0.17694347
 7117.25000,  0.19637525
 7117.50000,  0.21895670
 7117.75000,  0.24198566
 7118.00000,  0.26900755
 7118.25000,  0.29522866
 7118.50000,  0.32229341
 7118.75000,  0.35073321
 7119.00000,  0.38137627
 7119.25000,  0.41321490
 7119.50000,  0.44484067
 7119.75000,  0.47946855
 7120.00000,  0.51458062
 7120.25000,  0.55158151
 7120.50000,  0.58600981
 7120.75000,  0.62444531
 7121.00000,  0.65856294
 7121.25000,  0.69348651
 7121.50000,  0.72327916
 7121.75000,  0.75387102
 7122.00000,  0.77871481
 7122.25000,  0.80440609
 7122.50000,  0.82422112
 7122.75000,  0.84530409
 7123.00000,  0.86304867
 7123.25000,  0.88138031
 7123.50000,  0.89715434
 7123.75000,  0.91490573
 7124.00000,  0.93025715
 7124.25000,  0.94672284
 7124.50000,  0.95967106
 7124.75000,  0.97507036
 7125.00000,  0.98763023
 7125.25000,  1.00062064
 7125.50000,  1.01194346
 7125.75000,  1.02446194
 7126.00000,  1.03527348
 7126.25000,  1.04702332
 7126.50000,  1.05790019
 7126.75000,  1.06998837
 7127.00000,  1.08037576
 7127.25000,  1.09178855
 7127.50000,  1.10128238
 7127.75000,  1.11168606
 7128.00000,  1.12000224
 7128.25000,  1.12874336
 7128.50000,  1.13514020
 7128.75000,  1.14139047
 7129.00000,  1.14608035
 7129.25000,  1.14909090
 7129.50000,  1.15079877
 7129.75000,  1.15187754
 7130.00000,  1.15091084
 7130.25000,  1.14987070
 7130.50000,  1.14704621
 7130.75000,  1.14438847
 7131.00000,  1.13993472
 7131.25000,  1.13642611
 7131.50000,  1.13200639
 7131.75000,  1.12776670
 7132.00000,  1.12246233
 7132.25000,  1.11750191
 7132.50000,  1.11304231
 7132.75000,  1.10794907
 7133.00000,  1.10327062
 7133.25000,  1.09905383
 7133.50000,  1.09476541
 7133.75000,  1.09056236
 7134.00000,  1.08617726
 7134.25000,  1.08253953
 7134.50000,  1.07863050
 7134.75000,  1.07532598
 7135.00000,  1.07206992
 7135.25000,  1.06934021
 7135.50000,  1.06643027
 7135.75000,  1.06352610
 7136.00000,  1.06117284
 7136.25000,  1.05836114
 7136.50000,  1.05575830
 7136.75000,  1.05322346
 7137.00000,  1.05122152
 7137.25000,  1.04906874
 7137.50000,  1.04637632
 7137.75000,  1.04444331
 7138.00000,  1.04240244
 7138.25000,  1.04044104
 7138.50000,  1.03827352
 7138.75000,  1.03674370
 7139.00000,  1.03460528
 7139.25000,  1.03320464
 7139.50000,  1.03135494
 7139.75000,  1.02939975
 7140.00000,  1.02692901
 7140.25000,  1.02586299
 7140.50000,  1.02404105
 7140.75000,  1.02283281
 7141.00000,  1.02075398
 7141.25000,  1.01935735
 7141.50000,  1.01714655
 7141.75000,  1.01530701
 7142.00000,  1.01349270
 7142.25000,  1.01121861
 7142.50000,  1.00938312
 7142.75000,  1.00712703
 7143.00000,  1.00479107
 7143.25000,  1.00228577
 7143.50000,  0.99994400
 7143.75000,  0.99683664
 7144.00000,  0.99454654
 7144.25000,  0.99235329
 7144.50000,  0.98936788
 7144.75000,  0.98659219
 7145.00000,  0.98399758
 7145.25000,  0.98105113
 7145.50000,  0.97839645
 7145.75000,  0.97574707
 7146.00000,  0.97329280
 7146.25000,  0.97104398
 7146.50000,  0.96829706
 7146.75000,  0.96594028
 7147.00000,  0.96357988
 7147.25000,  0.96103261
 7147.50000,  0.95842604
 7147.75000,  0.95635018
 7148.00000,  0.95363413
 7148.25000,  0.95088468
 7148.50000,  0.94858503
 7148.75000,  0.94570429
 7149.00000,  0.94389113
 7149.25000,  0.94047680
 7149.50000,  0.93803786
 7149.75000,  0.93584725
 7150.00000,  0.93375841
 7150.25000,  0.93111607
 7150.50000,  0.92899591
 7150.75000,  0.92666763
 7151.00000,  0.92529017
 7151.25000,  0.92304079
 7151.50000,  0.92135968
 7151.75000,  0.92009810
 7152.00000,  0.91851107
 7152.25000,  0.91708842
 7152.50000,  0.91629769
 7152.75000,  0.91538648
 7153.00000,  0.91460028
 7153.25000,  0.91355312
 7153.50000,  0.91297730
 7153.75000,  0.91281342
 7154.00000,  0.91209728
 7154.25000,  0.91263409
 7154.50000,  0.91221256
 7154.75000,  0.91221835
 7155.00000,  0.91192390
 7155.25000,  0.91292205
 7155.50000,  0.91251054
 7155.75000,  0.91313200
 7156.00000,  0.91334860
 7156.25000,  0.91416858
 7156.50000,  0.91500723
 7156.75000,  0.91575443
 7157.00000,  0.91691833
 7157.25000,  0.91726228
 7157.50000,  0.91807575
 7157.75000,  0.91924465
 7158.00000,  0.92025209
 7158.25000,  0.92124719
 7158.50000,  0.92245618
 7158.75000,  0.92346369
 7159.00000,  0.92415437
 7159.25000,  0.92597193
 7159.50000,  0.92707436
 7159.75000,  0.92831148
 7160.00000,  0.92959478
 7161.09473,  0.93579853
 7162.20947,  0.94311628
 7163.34326,  0.95107850
 7164.49707,  0.95988540
 7165.67041,  0.96911312
 7166.86377,  0.97805880
 7168.07617,  0.98617436
 7169.30859,  0.99430619
 7170.56006,  1.00176857
 7171.83154,  1.00865557
 7173.12305,  1.01380321
 7174.43359,  1.01795307
 7175.76367,  1.02092011
 7177.11377,  1.02139497
 7178.48340,  1.02085272
 7179.87256,  1.01977737
 7181.28174,  1.01847868
 7182.70996,  1.01649430
 7184.15820,  1.01470202
 7185.62598,  1.01273829
 7187.11328,  1.01126890
 7188.62012,  1.01010734
 7190.14648,  1.00879544
 7191.69287,  1.00699185
 7193.25879,  1.00525038
 7194.84424,  1.00390689
 7196.44922,  1.00239006
 7198.07373,  1.00118203
 7199.71826,  0.99996733
 7201.38184,  0.99878096
 7203.06543,  0.99719025
 7204.76855,  0.99550875
 7206.49170,  0.99361687
 7208.23389,  0.99153527
 7209.99609,  0.98919404
 7211.77783,  0.98794935
 7213.57910,  0.98673350
 7215.39990,  0.98567795
 7217.24023,  0.98523124
 7219.10059,  0.98521185
 7220.98047,  0.98541427
 7222.87988,  0.98553057
 7224.79883,  0.98645913
 7226.73730,  0.98684328
 7228.69580,  0.98760620
 7230.67334,  0.98837500
 7232.67090,  0.98929488
 7234.68799,  0.99041131
 7236.72510,  0.99200575
 7238.78125,  0.99363777
 7240.85742,  0.99532529
 7242.95312,  0.99689445
 7245.06836,  0.99825399
 7247.20312,  0.99996810
 7249.35742,  1.00138585
 7251.53174,  1.00321594
 7253.72559,  1.00465099
 7255.93896,  1.00406807
 7258.17188,  1.00636708
 7260.42432,  1.00469471
 7262.69678,  1.00985805
 7264.98828,  1.01011077
 7267.29980,  1.01055060
 7269.63086,  1.01023745
 7271.98193,  1.00978895
 7274.35205,  1.00948539
 7276.74219,  1.00862746
 7279.15186,  1.00769412
 7281.58105,  1.00652315
 7284.02979,  1.00502081
 7286.49805,  1.00303843
 7288.98633,  1.00112534
 7291.49414,  0.99898402
 7294.02148,  0.99791151
 7296.56836,  0.99704317
 7299.13477,  0.99601511
 7301.72119,  0.99558563
 7304.32666,  0.99617436
 7306.95215,  0.99685528
 7309.59717,  0.99759029
 7312.26221,  0.99893868
 7314.94629,  0.99960091
 7317.65039,  1.00010112
 7320.37354,  1.00047905
 7323.11670,  1.00033986
 7325.87988,  1.00050848
 7328.66211,  1.00051710
 7331.46436,  1.00087314
 7334.28564,  1.00123711
 7337.12695,  1.00167584
 7339.98828,  1.00152739
 7342.86865,  1.00126035
 7345.76855,  1.00087502
 7348.68848,  1.00048021
 7351.62793,  1.00040368
 7354.58691,  1.00050275
 7357.56543,  1.00075281
 7360.56396,  1.00068234
 7363.58154,  1.00083165
 7366.61914,  1.00033342
 7369.67627,  1.00036142
 7372.75293,  1.00047379
 7375.84961,  1.00059428
 7378.96533,  1.00064871
 7382.10107,  1.00121146
 7385.25635,  1.00104936
 7388.43115,  1.00125540
 7391.62598,  1.00141894
 7394.83984,  1.00123486
 7398.07373,  1.00129877
 7401.32715,  1.00128337
 7404.60010,  1.00125995
 7407.89258,  1.00081844
 7411.20459,  1.00045603
 7414.53662,  1.00020498
 7417.88818,  0.99938246
 7421.25928,  0.99884289
 7424.64990,  0.99839550
 7428.06006,  0.99829570
 7431.49023,  0.99775068
 7434.93994,  0.99788216
 7438.40918,  0.99809108
 7441.89795,  0.99782052
 7445.40625,  0.99775768
 7448.93457,  0.99773333
 7452.48193,  0.99756460
 7456.04932,  0.99783251
 7459.63623,  0.99808348
 7463.24316,  0.99853731
 7466.86914,  0.99911488
 7470.51514,  0.99963912
 7474.18018,  1.00018176
 7477.86523,  1.00029016
 7481.57031,  1.00042433
 7485.29443,  1.00058478
 7489.03857,  1.00045858
 7492.80176,  1.00045353
 7496.58496,  1.00007052
 7500.38770,  0.99997140
 7504.21045,  0.99960769
 7508.05225,  0.99959275
 7511.91406,  0.99931772
 7515.79541,  0.99926184
 7519.69629,  0.99861254
 7523.61670,  0.99894393
 7527.55713,  0.99873905
 7531.51660,  0.99845182
 7535.49609,  0.99863979
 7539.49512,  0.99879288
 7543.51367,  0.99898949
 7547.55176,  0.99919336
 7551.60986,  0.99918032
 7555.68750,  0.99971969
 7559.78467,  0.99992455
 7563.90137,  0.99998996
 7568.03760,  1.00019658
 7572.19385,  1.00010473
 7576.36914,  0.99993003
 7580.56445,  1.00005125
 7584.77930,  0.99989426
 7589.01367,  0.99953947
 7593.26807,  0.99955637
 7597.54199,  0.99938592
 7601.83496,  0.99929708
 7606.14795,  0.99927182
 7610.48047,  0.99913954
 7614.83301,  0.99919948
 7619.20459,  0.99914898
 7623.59619,  0.99905890
 7628.00732,  0.99883252
 7632.43799,  1.00005305
 7636.88818,  0.99984688
 7641.35840,  0.99994538
 7645.84814,  1.00032898
 7650.35742,  1.00055721
 7654.88623,  1.00083188
 7659.43457,  1.00081395
 7664.00244,  1.00086913
 7668.59033,  1.00093128
 7673.19775,  1.00087031
 7677.82471,  1.00091839
 7682.47119,  1.00062015
 7687.13721,  1.00079067
 7691.82324,  1.00071990
 7696.52832,  1.00071305
 7701.25342,  1.00061461
 7705.99805,  1.00038442
 7710.76270,  1.00035471
 7715.54639,  1.00054545
 7720.35010,  1.00040844
 7725.17334,  1.00033794
 7730.01611,  1.00023849
 7734.87842,  1.00034785
 7739.76025,  1.00025582
 7744.66211,  1.00043076
 7749.58350,  1.00027531
 7754.52441,  1.00042915
 7759.48486,  1.00043492
 7764.46484,  1.00059299
 7769.46484,  1.00066676
 7774.48438,  1.00070967
 7779.52344,  1.00064152
 7784.58203,  1.00059337
 7789.66016,  1.00067122
 7794.75781,  1.00080966
 7799.87549,  1.00066870
 7805.01270,  1.00046218
 7810.16943,  1.00053372
 7815.34570,  1.00033758
 7820.54199,  1.00019896
 7825.75732,  1.00031295
 7830.99268,  1.00024012
 7836.24756,  1.00016596
 7841.52197,  1.00027427
 7846.81592,  1.00011983
 7852.12988,  1.00003165
 7857.46338,  1.00005579
 7862.81641,  1.00014459
 7868.18896,  1.00010069
 7873.58105,  1.00013018
 7878.99268,  1.00002460
 7884.42432,  1.00033085
 7889.87549,  1.00017003
 7895.34619,  1.00045027
 7900.83643,  1.00016232
 7906.34668,  1.00017901
 7911.87598,  1.00018244
 7917.42529,  1.00024521
 7922.99414,  1.00017632
 7928.58252,  1.00019020
 7934.19043,  1.00028396
 7939.81836,  1.00025302
 7945.46582,  1.00021288
 7951.13281,  1.00007092
 7956.81934,  0.99986958
 7962.52539,  1.00027820
 7968.25098,  1.00042104
 7973.99658,  1.00024158
 7979.76172,  1.00022555
 7985.54639,  1.00024882
 7991.35059,  1.00020966
 7997.17480,  1.00026518
 8003.01807,  1.00016636
 8008.88135,  1.00020252
 8014.76416,  1.00020546
 8020.66650,  0.99988912
 8026.58838,  1.00000842
 8032.53027,  0.99973985
 8038.49170,  0.99964737
 8044.47217,  0.99976928
 8050.47314,  0.99968934
 8056.49316,  0.99947243
 8062.53271,  0.99946689
 8068.59229,  0.99925205
 8074.67139,  0.99943876
 8080.77002,  0.99911919
 8086.88818,  0.99909661
 8093.02588,  0.99899602
 8099.18359,  0.99857242
 8105.36084,  0.99877234
