#saved Fri Feb 13 15:41:47 2026
#saving x array=energy, y array=flat
#FeXANES_GT15_FeTiXRD_striated2_5.001: FeXANES_GT15_FeTiXRD_striated2_5.001
#------------------------------------------
# energy, FeXANES_GT15_FeTiXRD_striated2_5.001
 7032.05000,  0.00145652
 7037.05000,  0.00145191
 7042.05000,  8.86888e-4
 7047.05000,  3.51256e-4
 7052.05000, -3.69515e-5
 7057.05000, -3.68713e-4
 7062.05000, -6.58422e-4
 7067.05000, -6.74508e-4
 7072.05000, -5.51737e-4
 7077.05000, -2.75621e-4
 7082.05000, -1.24513e-4
 7087.05000,  0.00145232
 7092.05000,  0.00261939
 7097.05000,  0.00647492
 7102.05000,  0.00856357
 7102.35000,  0.01230896
 7102.65000,  0.01256355
 7102.95000,  0.01284256
 7103.25000,  0.01372237
 7103.55000,  0.01415706
 7103.85000,  0.01423195
 7104.15000,  0.01499101
 7104.45000,  0.01606632
 7104.75000,  0.01673583
 7105.05000,  0.01717119
 7105.35000,  0.01815666
 7105.65000,  0.01876100
 7105.95000,  0.01948170
 7106.25000,  0.02048185
 7106.55000,  0.02151818
 7106.85000,  0.02260602
 7107.15000,  0.02362017
 7107.45000,  0.02459241
 7107.75000,  0.02570554
 7108.05000,  0.02742863
 7108.35000,  0.02835377
 7108.65000,  0.03047305
 7108.95000,  0.03194077
 7109.25000,  0.03438645
 7109.55000,  0.03659348
 7109.85000,  0.04049627
 7110.15000,  0.04437542
 7110.45000,  0.04937188
 7110.75000,  0.05426700
 7111.05000,  0.06360690
 7111.35000,  0.07287613
 7111.65000,  0.08869414
 7111.95000,  0.11233201
 7112.25000,  0.12121881
 7112.55000,  0.14245997
 7112.85000,  0.15228028
 7113.15000,  0.16026806
 7113.45000,  0.17074766
 7113.75000,  0.17135075
 7114.05000,  0.16587736
 7114.35000,  0.16067249
 7114.65000,  0.15528942
 7114.95000,  0.15500893
 7115.25000,  0.15661417
 7115.55000,  0.15662119
 7115.85000,  0.16366272
 7116.15000,  0.17130475
 7116.45000,  0.17648626
 7116.75000,  0.18026229
 7117.05000,  0.18651496
 7117.35000,  0.19232453
 7117.65000,  0.20510461
 7117.95000,  0.21862037
 7118.25000,  0.23410646
 7118.55000,  0.25535392
 7118.85000,  0.27808546
 7119.15000,  0.29888274
 7119.45000,  0.33564478
 7119.75000,  0.36906603
 7120.05000,  0.38819757
 7120.35000,  0.43310875
 7120.65000,  0.48346163
 7120.95000,  0.51572839
 7121.25000,  0.57315257
 7121.55000,  0.59375287
 7121.85000,  0.65662168
 7122.15000,  0.71397015
 7122.45000,  0.75496889
 7122.75000,  0.79028826
 7123.05000,  0.81671276
 7123.35000,  0.84538001
 7123.65000,  0.87039363
 7123.95000,  0.89313110
 7124.25000,  0.90976450
 7124.55000,  0.93334404
 7124.85000,  0.95934674
 7125.15000,  0.97002455
 7125.45000,  1.00045250
 7125.75000,  1.01302521
 7126.05000,  1.02850404
 7126.35000,  1.04395653
 7126.65000,  1.05531620
 7126.95000,  1.06964228
 7127.25000,  1.08108897
 7127.55000,  1.09363091
 7127.85000,  1.10316395
 7128.15000,  1.10975994
 7128.45000,  1.11837536
 7128.75000,  1.12214699
 7129.05000,  1.12266071
 7129.35000,  1.12734626
 7129.65000,  1.12923296
 7129.95000,  1.13090800
 7130.25000,  1.13044102
 7130.55000,  1.13245000
 7130.85000,  1.12959695
 7131.15000,  1.13391607
 7131.45000,  1.13548538
 7131.75000,  1.13509748
 7132.05000,  1.13739083
 7133.05000,  1.13682586
 7134.05000,  1.11847596
 7135.05000,  1.10767285
 7136.05000,  1.10078033
 7137.05000,  1.08243948
 7138.05000,  1.07835661
 7139.05000,  1.06976867
 7140.05000,  1.05233263
 7141.05000,  1.04418673
 7142.05000,  1.03255550
 7143.05000,  1.02576054
 7144.05000,  1.02399830
 7145.05000,  1.02441018
 7146.05000,  1.02275416
 7147.05000,  1.02425758
 7148.05000,  1.01507783
 7149.05000,  1.00368530
 7150.05000,  0.99966250
 7151.05000,  0.98620208
 7152.05000,  0.98291670
 7153.05000,  0.97621767
 7154.05000,  0.96744533
 7155.05000,  0.96543511
 7156.05000,  0.96262823
 7157.05000,  0.95459221
 7158.05000,  0.95323050
 7159.05000,  0.95378180
 7160.05000,  0.94994456
 7161.05000,  0.95358970
 7162.05000,  0.95567629
 7163.05000,  0.95976228
 7164.05000,  0.96192992
 7165.05000,  0.96127074
 7166.05000,  0.96835268
 7167.05000,  0.97008180
 7168.05000,  0.97590749
 7169.05000,  0.98131173
 7170.05000,  0.98779509
 7171.05000,  0.98990879
 7172.05000,  0.99948394
 7173.05000,  1.00417238
 7174.05000,  1.01381252
 7175.05000,  1.02237193
 7176.05000,  1.02228665
 7177.05000,  1.02889955
 7178.05000,  1.02995080
 7179.05000,  1.03053686
 7180.05000,  1.03164022
 7181.05000,  1.03278239
 7182.05000,  1.03368056
 7183.05000,  1.03424381
 7184.05000,  1.03263576
 7185.05000,  1.02944771
 7186.05000,  1.03062290
 7187.05000,  1.02857586
 7188.05000,  1.02686690
 7189.05000,  1.02742170
 7190.05000,  1.02764276
 7191.05000,  1.02441643
 7192.05000,  1.02272089
 7193.05000,  1.02143964
 7194.05000,  1.01664983
 7195.05000,  1.01541014
 7196.05000,  1.01211850
 7197.05000,  1.01105161
 7198.05000,  1.00845125
 7199.05000,  1.00802753
 7200.05000,  1.00843404
 7201.05000,  1.00504588
 7202.05000,  1.00072138
 7203.05000,  0.99849125
 7204.05000,  0.99696720
 7205.05000,  0.99416641
 7206.05000,  0.99414588
 7207.05000,  0.99381632
 7208.05000,  0.99114073
 7209.05000,  0.99140715
 7210.05000,  0.99085706
 7211.05000,  0.99088628
 7212.05000,  0.99041733
 7213.05000,  0.99267721
 7214.05000,  0.99140655
 7215.05000,  0.99395340
 7216.05000,  0.99483541
 7217.05000,  0.99375346
 7218.05000,  0.99782531
 7219.05000,  0.99942525
 7220.05000,  0.99864452
 7221.05000,  1.00065658
 7222.05000,  1.00375335
 7223.05000,  1.00498076
 7224.05000,  1.00358158
 7225.05000,  1.00427978
 7226.05000,  1.00277335
 7227.05000,  1.00345992
 7228.05000,  1.00304315
 7229.05000,  1.00183920
 7230.05000,  1.00008062
 7231.05000,  0.99791359
 7232.05000,  0.99826827
 7233.05000,  0.99710687
 7234.05000,  0.99625354
 7235.05000,  0.99972416
 7236.05000,  0.99765953
 7237.05000,  1.00063473
 7238.05000,  0.99994167
 7239.05000,  1.00093569
 7240.05000,  0.99861702
 7241.05000,  0.99520595
 7242.05000,  0.99954414
 7243.05000,  0.99835956
 7244.05000,  0.99595281
 7245.05000,  0.99671901
 7246.05000,  0.99579479
 7247.05000,  1.00283621
 7248.05000,  0.99711262
 7249.05000,  0.99265183
 7250.05000,  0.99303344
 7251.05000,  0.99363804
 7252.05000,  0.99327102
 7253.05000,  0.99519691
 7254.05000,  1.00035181
 7255.05000,  1.00800685
 7256.05000,  0.99872836
 7257.05000,  0.99834842
 7258.05000,  1.00200949
 7259.05000,  1.00732056
 7260.05000,  1.00350851
 7261.05000,  1.00666339
 7262.05000,  1.01525423
 7263.05000,  1.04243430
 7264.05000,  1.04587170
 7265.05000,  1.01100502
 7266.05000,  1.00934170
 7267.05000,  1.00739522
 7268.05000,  1.01662115
 7269.05000,  1.00591094
 7270.05000,  1.00610271
 7271.05000,  1.00880572
 7272.05000,  1.00897432
 7273.05000,  1.00933516
 7274.05000,  1.00352863
 7275.05000,  1.00253404
 7276.05000,  1.00135977
 7277.05000,  1.00077267
 7278.05000,  1.00176428
 7279.05000,  1.00164654
 7280.05000,  1.00519692
 7281.05000,  1.00113000
 7282.05000,  0.99645388
 7283.05000,  1.00122273
 7284.05000,  0.99716873
 7285.05000,  0.99854669
 7286.05000,  0.99898403
 7287.05000,  0.99599177
 7288.05000,  0.99785824
 7289.05000,  0.99658385
 7290.05000,  0.99537980
 7291.05000,  0.99854608
 7292.05000,  0.99770179
 7293.05000,  0.99898390
 7294.05000,  0.99825314
 7295.05000,  0.99406847
 7296.05000,  0.99716125
 7297.05000,  0.99232094
 7298.05000,  0.99336720
 7299.05000,  0.99325844
 7300.05000,  0.99290343
 7301.05000,  0.99031529
 7302.05000,  0.99448390
 7303.05000,  0.99233956
 7304.05000,  0.98661977
 7305.05000,  0.99245131
 7306.05000,  0.98879696
 7307.05000,  0.98951090
 7308.05000,  0.98889585
 7309.05000,  0.98706916
 7310.05000,  0.98630291
 7311.05000,  0.98438991
 7312.05000,  0.98572970
