#saved Fri Feb 13 15:41:47 2026
#saving x array=energy, y array=flat
#FeXANES_GT5_flaky2_FeXRD_3.001: FeXANES_GT5_flaky2_FeXRD_3.001
#------------------------------------------
# energy, FeXANES_GT5_flaky2_FeXRD_3.001
 7032.05000,  9.77154e-4
 7037.05000,  5.54301e-4
 7042.05000,  2.89425e-4
 7047.05000,  1.94796e-4
 7052.05000, -3.40304e-5
 7057.05000, -2.18426e-4
 7062.05000, -3.28228e-4
 7067.05000, -7.12696e-5
 7072.05000, -1.12079e-4
 7077.05000, -7.60747e-5
 7082.05000, -1.99823e-4
 7087.05000,  5.55709e-4
 7092.05000,  6.48232e-4
 7097.05000,  0.00270734
 7102.05000,  0.00546572
 7102.35000,  0.00550464
 7102.65000,  0.00552380
 7102.95000,  0.00569217
 7103.25000,  0.00612496
 7103.55000,  0.00635255
 7103.85000,  0.00667679
 7104.15000,  0.00674505
 7104.45000,  0.00712237
 7104.75000,  0.00722655
 7105.05000,  0.00775851
 7105.35000,  0.00778432
 7105.65000,  0.00820408
 7105.95000,  0.00859339
 7106.25000,  0.00888994
 7106.55000,  0.00960924
 7106.85000,  0.00959376
 7107.15000,  0.01003322
 7107.45000,  0.01080103
 7107.75000,  0.01098957
 7108.05000,  0.01203566
 7108.35000,  0.01276458
 7108.65000,  0.01331723
 7108.95000,  0.01394457
 7109.25000,  0.01491643
 7109.55000,  0.01596420
 7109.85000,  0.01768036
 7110.15000,  0.01932948
 7110.45000,  0.02171036
 7110.75000,  0.02508197
 7111.05000,  0.02869247
 7111.35000,  0.03339435
 7111.65000,  0.03682671
 7111.95000,  0.04858106
 7112.25000,  0.05635869
 7112.55000,  0.06168103
 7112.85000,  0.06878649
 7113.15000,  0.07378595
 7113.45000,  0.07492429
 7113.75000,  0.07309522
 7114.05000,  0.07300501
 7114.35000,  0.06345406
 7114.65000,  0.05989351
 7114.95000,  0.05792341
 7115.25000,  0.05752471
 7115.55000,  0.06004472
 7115.85000,  0.06166175
 7116.15000,  0.06570591
 7116.45000,  0.06859772
 7116.75000,  0.07632710
 7117.05000,  0.07961751
 7117.35000,  0.08996036
 7117.65000,  0.09866708
 7117.95000,  0.10707263
 7118.25000,  0.12191468
 7118.55000,  0.13267996
 7118.85000,  0.15026769
 7119.15000,  0.17018955
 7119.45000,  0.19175737
 7119.75000,  0.21473065
 7120.05000,  0.24718336
 7120.35000,  0.27435738
 7120.65000,  0.29649841
 7120.95000,  0.32751878
 7121.25000,  0.36069388
 7121.55000,  0.39546922
 7121.85000,  0.43668573
 7122.15000,  0.47912377
 7122.45000,  0.53463411
 7122.75000,  0.56966340
 7123.05000,  0.62365032
 7123.35000,  0.66315379
 7123.65000,  0.69115576
 7123.95000,  0.73872817
 7124.25000,  0.76642834
 7124.55000,  0.81139996
 7124.85000,  0.85046067
 7125.15000,  0.88690829
 7125.45000,  0.90425004
 7125.75000,  0.96501505
 7126.05000,  1.00459361
 7126.35000,  1.04380941
 7126.65000,  1.07493653
 7126.95000,  1.12236896
 7127.25000,  1.14094330
 7127.55000,  1.18321849
 7127.85000,  1.22511792
 7128.15000,  1.24718517
 7128.45000,  1.26934440
 7128.75000,  1.29299693
 7129.05000,  1.30241001
 7129.35000,  1.31828450
 7129.65000,  1.32033301
 7129.95000,  1.32499307
 7130.25000,  1.32900351
 7130.55000,  1.33969151
 7130.85000,  1.34137758
 7131.15000,  1.34950219
 7131.45000,  1.36001132
 7131.75000,  1.35836333
 7132.05000,  1.36094890
 7133.05000,  1.34007818
 7134.05000,  1.29236209
 7135.05000,  1.24760695
 7136.05000,  1.20960518
 7137.05000,  1.18243535
 7138.05000,  1.17654883
 7139.05000,  1.14252955
 7140.05000,  1.11331685
 7141.05000,  1.09191090
 7142.05000,  1.07533626
 7143.05000,  1.06101106
 7144.05000,  1.05848564
 7145.05000,  1.05402850
 7146.05000,  1.04187833
 7147.05000,  1.02580408
 7148.05000,  1.00125696
 7149.05000,  0.97381519
 7150.05000,  0.94910314
 7151.05000,  0.93044206
 7152.05000,  0.91912942
 7153.05000,  0.90702257
 7154.05000,  0.89016104
 7155.05000,  0.87709831
 7156.05000,  0.86911196
 7157.05000,  0.86012850
 7158.05000,  0.85475857
 7159.05000,  0.85419643
 7160.05000,  0.85644355
 7161.05000,  0.85795843
 7162.05000,  0.86393049
 7163.05000,  0.87338263
 7164.05000,  0.88069449
 7165.05000,  0.88455306
 7166.05000,  0.89972340
 7167.05000,  0.91212944
 7168.05000,  0.92555752
 7169.05000,  0.93829527
 7170.05000,  0.94522634
 7171.05000,  0.95986959
 7172.05000,  0.97541917
 7173.05000,  0.98896359
 7174.05000,  1.00137126
 7175.05000,  1.01556848
 7176.05000,  1.02446126
 7177.05000,  1.02968332
 7178.05000,  1.03352996
 7179.05000,  1.03467403
 7180.05000,  1.04040196
 7181.05000,  1.03932970
 7182.05000,  1.04290376
 7183.05000,  1.04279917
 7184.05000,  1.04454133
 7185.05000,  1.04430546
 7186.05000,  1.04555984
 7187.05000,  1.04297840
 7188.05000,  1.04121991
 7189.05000,  1.04163752
 7190.05000,  1.03858446
 7191.05000,  1.03615905
 7192.05000,  1.03413637
 7193.05000,  1.02884735
 7194.05000,  1.02635627
 7195.05000,  1.02667798
 7196.05000,  1.02478271
 7197.05000,  1.02338722
 7198.05000,  1.01669224
 7199.05000,  1.01428913
 7200.05000,  1.01226045
 7201.05000,  1.00734607
 7202.05000,  1.00411988
 7203.05000,  0.99948985
 7204.05000,  0.99666410
 7205.05000,  0.99536292
 7206.05000,  0.98924087
 7207.05000,  0.98865132
 7208.05000,  0.98768586
 7209.05000,  0.98793318
 7210.05000,  0.98175639
 7211.05000,  0.98410825
 7212.05000,  0.98234975
 7213.05000,  0.98145650
 7214.05000,  0.97802600
 7215.05000,  0.97982987
 7216.05000,  0.98090225
 7217.05000,  0.98101479
 7218.05000,  0.97951478
 7219.05000,  0.98171808
 7220.05000,  0.98591240
 7221.05000,  0.98771443
 7222.05000,  0.98381307
 7223.05000,  0.98509338
 7224.05000,  0.98793776
 7225.05000,  0.98663380
 7226.05000,  0.98710615
 7227.05000,  0.98817108
 7228.05000,  0.98760104
 7229.05000,  0.98605005
 7230.05000,  0.98417397
 7231.05000,  0.98518748
 7232.05000,  0.98295318
 7233.05000,  0.98553209
 7234.05000,  0.98027896
 7235.05000,  0.98163797
 7236.05000,  0.98232178
 7237.05000,  0.98251949
 7238.05000,  0.98198490
 7239.05000,  0.98351811
 7240.05000,  0.98985112
 7241.05000,  0.98766516
 7242.05000,  0.98802518
 7243.05000,  0.98792590
 7244.05000,  0.98852488
 7245.05000,  0.99038532
 7246.05000,  0.98929458
 7247.05000,  0.99304377
 7248.05000,  0.99203076
 7249.05000,  0.99502204
 7250.05000,  0.99370753
 7251.05000,  0.99522291
 7252.05000,  0.99884216
 7253.05000,  0.99473660
 7254.05000,  0.99818549
 7255.05000,  1.00263497
 7256.05000,  1.00163133
 7257.05000,  1.00422570
 7258.05000,  1.00644169
 7259.05000,  1.00756373
 7260.05000,  1.00638386
 7261.05000,  1.01025264
 7262.05000,  1.01071349
 7263.05000,  1.02339203
 7264.05000,  1.02691299
 7265.05000,  0.98764790
 7266.05000,  1.01648565
 7267.05000,  1.02000574
 7268.05000,  1.01903192
 7269.05000,  1.01120817
 7270.05000,  1.01751180
 7271.05000,  1.01975026
 7272.05000,  1.01817174
 7273.05000,  1.02015526
 7274.05000,  1.01494561
 7275.05000,  1.01355894
 7276.05000,  1.01606824
 7277.05000,  1.01639562
 7278.05000,  1.01770963
 7279.05000,  1.01834319
 7280.05000,  1.02551791
 7281.05000,  1.01387155
 7282.05000,  1.01463934
 7283.05000,  1.01277147
 7284.05000,  1.01513924
 7285.05000,  1.00966921
 7286.05000,  1.00841740
 7287.05000,  1.00975416
 7288.05000,  1.01016282
 7289.05000,  1.00580639
 7290.05000,  1.00591964
 7291.05000,  1.00133269
 7292.05000,  1.00381887
 7293.05000,  1.00560093
 7294.05000,  1.00287326
 7295.05000,  1.00024164
 7296.05000,  1.00309790
 7297.05000,  0.99894602
 7298.05000,  0.99878025
 7299.05000,  1.00073663
 7300.05000,  0.99706672
 7301.05000,  0.99501890
 7302.05000,  0.99509965
 7303.05000,  0.99279388
 7304.05000,  0.99387142
 7305.05000,  0.98780272
 7306.05000,  0.98580928
 7307.05000,  0.98268825
 7308.05000,  0.98493158
 7309.05000,  0.98167647
 7310.05000,  0.97851868
 7311.05000,  0.98089700
 7312.05000,  0.97971800
