#saved Fri Feb 13 15:41:47 2026
#saving x array=energy, y array=flat
#FeXANES_GT5_flaky2_FeXRD_7.001: FeXANES_GT5_flaky2_FeXRD_7.001
#------------------------------------------
# energy, FeXANES_GT5_flaky2_FeXRD_7.001
 7032.05000, -1.29651e-4
 7037.05000,  2.23306e-4
 7042.05000,  1.31762e-4
 7047.05000,  5.68888e-5
 7052.05000, -1.00719e-4
 7057.05000, -1.28528e-4
 7062.05000, -3.02159e-4
 7067.05000, -2.78209e-4
 7072.05000, -1.84319e-4
 7077.05000,  1.96781e-4
 7082.05000,  3.85196e-4
 7087.05000,  0.00122280
 7092.05000,  0.00221130
 7097.05000,  0.00396233
 7102.05000,  0.00655234
 7102.35000,  0.00685823
 7102.65000,  0.00742930
 7102.95000,  0.00741587
 7103.25000,  0.00744612
 7103.55000,  0.00790344
 7103.85000,  0.00822520
 7104.15000,  0.00852411
 7104.45000,  0.00880310
 7104.75000,  0.00893656
 7105.05000,  0.00964204
 7105.35000,  0.00988434
 7105.65000,  0.00998406
 7105.95000,  0.01047055
 7106.25000,  0.01070908
 7106.55000,  0.01157749
 7106.85000,  0.01183956
 7107.15000,  0.01243359
 7107.45000,  0.01321230
 7107.75000,  0.01366075
 7108.05000,  0.01498314
 7108.35000,  0.01553227
 7108.65000,  0.01587492
 7108.95000,  0.01702883
 7109.25000,  0.01795587
 7109.55000,  0.02005328
 7109.85000,  0.02318943
 7110.15000,  0.02572261
 7110.45000,  0.02759447
 7110.75000,  0.03319766
 7111.05000,  0.03822259
 7111.35000,  0.04089106
 7111.65000,  0.04529527
 7111.95000,  0.05080638
 7112.25000,  0.05565443
 7112.55000,  0.05942443
 7112.85000,  0.06266707
 7113.15000,  0.06517895
 7113.45000,  0.06503866
 7113.75000,  0.06483610
 7114.05000,  0.06459196
 7114.35000,  0.06287108
 7114.65000,  0.06029399
 7114.95000,  0.06089958
 7115.25000,  0.06251463
 7115.55000,  0.06981840
 7115.85000,  0.07777711
 7116.15000,  0.08926274
 7116.45000,  0.10390758
 7116.75000,  0.12055832
 7117.05000,  0.13756173
 7117.35000,  0.15603818
 7117.65000,  0.15623189
 7117.95000,  0.19164218
 7118.25000,  0.22620993
 7118.55000,  0.25981752
 7118.85000,  0.30043251
 7119.15000,  0.30063786
 7119.45000,  0.39452606
 7119.75000,  0.44206100
 7120.05000,  0.48775051
 7120.35000,  0.52428755
 7120.65000,  0.54874406
 7120.95000,  0.57016518
 7121.25000,  0.61216548
 7121.55000,  0.63609614
 7121.85000,  0.66208756
 7122.15000,  0.70864194
 7122.45000,  0.76713101
 7122.75000,  0.81678922
 7123.05000,  0.86864026
 7123.35000,  0.90536740
 7123.65000,  0.95634027
 7123.95000,  1.01206605
 7124.25000,  1.04216578
 7124.55000,  1.08372981
 7124.85000,  1.11256887
 7125.15000,  1.13305640
 7125.45000,  1.15179954
 7125.75000,  1.16803935
 7126.05000,  1.18102879
 7126.35000,  1.19490797
 7126.65000,  1.20616889
 7126.95000,  1.22995116
 7127.25000,  1.25113129
 7127.55000,  1.27567067
 7127.85000,  1.30246898
 7128.15000,  1.31728451
 7128.45000,  1.34931851
 7128.75000,  1.36765354
 7129.05000,  1.38059000
 7129.35000,  1.38200158
 7129.65000,  1.38567969
 7129.95000,  1.38202328
 7130.25000,  1.37254996
 7130.55000,  1.36568574
 7130.85000,  1.35574663
 7131.15000,  1.34692965
 7131.45000,  1.34322812
 7131.75000,  1.32804120
 7132.05000,  1.32272294
 7133.05000,  1.26610346
 7134.05000,  1.20564337
 7135.05000,  1.16641987
 7136.05000,  1.11804485
 7137.05000,  1.10491516
 7138.05000,  1.09181890
 7139.05000,  1.07893112
 7140.05000,  1.08197506
 7141.05000,  1.08229150
 7142.05000,  1.07638467
 7143.05000,  1.06760294
 7144.05000,  1.05705691
 7145.05000,  1.04223725
 7146.05000,  1.02666915
 7147.05000,  0.99597094
 7148.05000,  0.96637952
 7149.05000,  0.94134561
 7150.05000,  0.92315111
 7151.05000,  0.90118991
 7152.05000,  0.89222471
 7153.05000,  0.88381350
 7154.05000,  0.88312510
 7155.05000,  0.88642625
 7156.05000,  0.88720158
 7157.05000,  0.89042707
 7158.05000,  0.89655930
 7159.05000,  0.90115147
 7160.05000,  0.90596794
 7161.05000,  0.91846876
 7162.05000,  0.92634593
 7163.05000,  0.94908966
 7164.05000,  0.96015498
 7165.05000,  0.96804659
 7166.05000,  0.98071957
 7167.05000,  0.99043337
 7168.05000,  0.99635213
 7169.05000,  1.00470701
 7170.05000,  1.00934958
 7171.05000,  1.01811714
 7172.05000,  1.02296481
 7173.05000,  1.03226434
 7174.05000,  1.04040070
 7175.05000,  1.04747554
 7176.05000,  1.05551988
 7177.05000,  1.06054638
 7178.05000,  1.05993651
 7179.05000,  1.06567322
 7180.05000,  1.06447210
 7181.05000,  1.06775236
 7182.05000,  1.07183393
 7183.05000,  1.06665695
 7184.05000,  1.06531206
 7185.05000,  1.06304570
 7186.05000,  1.06299027
 7187.05000,  1.05949334
 7188.05000,  1.05699601
 7189.05000,  1.05386461
 7190.05000,  1.04729214
 7191.05000,  1.04403475
 7192.05000,  1.03573858
 7193.05000,  1.03328851
 7194.05000,  1.02952636
 7195.05000,  1.02851096
 7196.05000,  1.02331520
 7197.05000,  1.02038194
 7198.05000,  1.01521615
 7199.05000,  1.01294598
 7200.05000,  1.01071882
 7201.05000,  1.00648147
 7202.05000,  1.00660187
 7203.05000,  0.99821012
 7204.05000,  0.99496445
 7205.05000,  0.99518362
 7206.05000,  0.98881005
 7207.05000,  0.98971744
 7208.05000,  0.98995023
 7209.05000,  0.98641553
 7210.05000,  0.98845581
 7211.05000,  0.98886563
 7212.05000,  0.98884897
 7213.05000,  0.98937996
 7214.05000,  0.99033520
 7215.05000,  0.99237663
 7216.05000,  0.99621079
 7217.05000,  0.99210619
 7218.05000,  0.99576676
 7219.05000,  0.99831555
 7220.05000,  0.99686024
 7221.05000,  0.99848684
 7222.05000,  0.99538568
 7223.05000,  0.99394110
 7224.05000,  0.99518985
 7225.05000,  0.99488966
 7226.05000,  0.99157793
 7227.05000,  0.99074870
 7228.05000,  0.98953327
 7229.05000,  0.99192674
 7230.05000,  0.98787486
 7231.05000,  0.98925557
 7232.05000,  0.98863998
 7233.05000,  0.98757927
 7234.05000,  0.98762871
 7235.05000,  0.98496997
 7236.05000,  0.98568150
 7237.05000,  0.98820064
 7238.05000,  0.98906721
 7239.05000,  0.98886577
 7240.05000,  0.99396957
 7241.05000,  0.99250602
 7242.05000,  0.99539568
 7243.05000,  0.99361352
 7244.05000,  1.00126981
 7245.05000,  0.99917012
 7246.05000,  1.00372268
 7247.05000,  1.01014237
 7248.05000,  1.01026588
 7249.05000,  1.00562107
 7250.05000,  1.01104083
 7251.05000,  1.01188277
 7252.05000,  1.01304536
 7253.05000,  1.01219430
 7254.05000,  1.01835841
 7255.05000,  1.01798015
 7256.05000,  1.01254118
 7257.05000,  1.01169669
 7258.05000,  1.01542292
 7259.05000,  1.01990874
 7260.05000,  1.01307650
 7261.05000,  1.01509424
 7262.05000,  1.01786956
 7263.05000,  1.04296786
 7264.05000,  1.02414560
 7265.05000,  0.98720536
 7266.05000,  1.01038869
 7267.05000,  1.00902270
 7268.05000,  1.00803390
 7269.05000,  1.00000486
 7270.05000,  1.00817978
 7271.05000,  1.00805157
 7272.05000,  1.01195432
 7273.05000,  1.01278185
 7274.05000,  1.00692359
 7275.05000,  1.00506435
 7276.05000,  1.00728164
 7277.05000,  1.00902946
 7278.05000,  1.00854302
 7279.05000,  1.00722232
 7280.05000,  1.01196027
 7281.05000,  1.00837599
 7282.05000,  1.00691490
 7283.05000,  1.00728388
 7284.05000,  1.00686999
 7285.05000,  1.00489802
 7286.05000,  1.00339356
 7287.05000,  1.00044259
 7288.05000,  1.00195534
 7289.05000,  0.99876534
 7290.05000,  0.99783520
 7291.05000,  0.99664736
 7292.05000,  0.99785841
 7293.05000,  0.99376354
 7294.05000,  0.99565651
 7295.05000,  0.99528513
 7296.05000,  0.99422949
 7297.05000,  0.99216955
 7298.05000,  0.99375352
 7299.05000,  0.99343419
 7300.05000,  0.98951252
 7301.05000,  0.98957587
 7302.05000,  0.98847586
 7303.05000,  0.98980164
 7304.05000,  0.98899464
 7305.05000,  0.98690327
 7306.05000,  0.98335850
 7307.05000,  0.98570040
 7308.05000,  0.98961481
 7309.05000,  0.98648162
 7310.05000,  0.98821532
 7311.05000,  0.99340574
 7312.05000,  0.99122807
