#saved Fri Feb 13 15:41:47 2026
#saving x array=energy, y array=flat
#FeXANES_GT15_FeTiXRD_striated2_2.001: FeXANES_GT15_FeTiXRD_striated2_2.001
#------------------------------------------
# energy, FeXANES_GT15_FeTiXRD_striated2_2.001
 7032.05000,  4.36902e-5
 7037.05000,  5.02542e-4
 7042.05000,  3.86840e-4
 7047.05000,  3.56134e-5
 7052.05000, -1.77065e-4
 7057.05000, -5.06041e-4
 7062.05000, -3.10445e-4
 7067.05000, -6.32040e-4
 7072.05000, -2.97612e-4
 7077.05000, -5.41166e-4
 7082.05000,  0.00153937
 7087.05000,  0.00262969
 7092.05000,  0.00394975
 7097.05000,  0.00878728
 7102.05000,  0.01357463
 7102.35000,  0.01571104
 7102.65000,  0.01615837
 7102.95000,  0.01635171
 7103.25000,  0.01746474
 7103.55000,  0.01799404
 7103.85000,  0.01841526
 7104.15000,  0.01938187
 7104.45000,  0.02015302
 7104.75000,  0.02103219
 7105.05000,  0.02165516
 7105.35000,  0.02219817
 7105.65000,  0.02365349
 7105.95000,  0.02463691
 7106.25000,  0.02542343
 7106.55000,  0.02657075
 7106.85000,  0.02695694
 7107.15000,  0.02904137
 7107.45000,  0.02999097
 7107.75000,  0.03213913
 7108.05000,  0.03320828
 7108.35000,  0.03563974
 7108.65000,  0.03820854
 7108.95000,  0.04082490
 7109.25000,  0.04296439
 7109.55000,  0.04829232
 7109.85000,  0.04828760
 7110.15000,  0.05711196
 7110.45000,  0.06757373
 7110.75000,  0.07545438
 7111.05000,  0.08991827
 7111.35000,  0.10023523
 7111.65000,  0.12612216
 7111.95000,  0.14944694
 7112.25000,  0.17330148
 7112.55000,  0.18675694
 7112.85000,  0.20029835
 7113.15000,  0.20033131
 7113.45000,  0.19466928
 7113.75000,  0.19478897
 7114.05000,  0.18767220
 7114.35000,  0.18572954
 7114.65000,  0.18515170
 7114.95000,  0.18701189
 7115.25000,  0.18919446
 7115.55000,  0.19338030
 7115.85000,  0.19970935
 7116.15000,  0.21140750
 7116.45000,  0.21498315
 7116.75000,  0.23974474
 7117.05000,  0.26057706
 7117.35000,  0.28123470
 7117.65000,  0.30614706
 7117.95000,  0.32019880
 7118.25000,  0.35698727
 7118.55000,  0.38169968
 7118.85000,  0.42877420
 7119.15000,  0.47052578
 7119.45000,  0.52531905
 7119.75000,  0.56898048
 7120.05000,  0.60167160
 7120.35000,  0.65150524
 7120.65000,  0.68113792
 7120.95000,  0.71382714
 7121.25000,  0.74788939
 7121.55000,  0.78253976
 7121.85000,  0.80307115
 7122.15000,  0.83781148
 7122.45000,  0.85958532
 7122.75000,  0.87186409
 7123.05000,  0.90217555
 7123.35000,  0.91922127
 7123.65000,  0.94248232
 7123.95000,  0.96297707
 7124.25000,  0.98052529
 7124.55000,  0.99084846
 7124.85000,  1.00618804
 7125.15000,  1.01551134
 7125.45000,  1.02198150
 7125.75000,  1.03332265
 7126.05000,  1.04152258
 7126.35000,  1.05114398
 7126.65000,  1.06059930
 7126.95000,  1.06956052
 7127.25000,  1.08246378
 7127.55000,  1.09409557
 7127.85000,  1.10124539
 7128.15000,  1.10582633
 7128.45000,  1.11950439
 7128.75000,  1.12315976
 7129.05000,  1.12960594
 7129.35000,  1.13035578
 7129.65000,  1.12904191
 7129.95000,  1.13252569
 7130.25000,  1.13298409
 7130.55000,  1.12908113
 7130.85000,  1.12622486
 7131.15000,  1.12464800
 7131.45000,  1.11899632
 7131.75000,  1.11615281
 7132.05000,  1.11293587
 7133.05000,  1.10299725
 7134.05000,  1.08234931
 7135.05000,  1.06902186
 7136.05000,  1.06599749
 7137.05000,  1.05649885
 7138.05000,  1.04884454
 7139.05000,  1.03914407
 7140.05000,  1.03215659
 7141.05000,  1.02583004
 7142.05000,  1.02493497
 7143.05000,  1.02925802
 7144.05000,  1.02685374
 7145.05000,  1.02414599
 7146.05000,  1.02264736
 7147.05000,  1.01758549
 7148.05000,  1.00342794
 7149.05000,  1.00058049
 7150.05000,  0.98598389
 7151.05000,  0.98027522
 7152.05000,  0.97494058
 7153.05000,  0.96983171
 7154.05000,  0.96637716
 7155.05000,  0.95781906
 7156.05000,  0.95674326
 7157.05000,  0.95243027
 7158.05000,  0.95016678
 7159.05000,  0.95221821
 7160.05000,  0.95153236
 7161.05000,  0.95470783
 7162.05000,  0.95898599
 7163.05000,  0.96034865
 7164.05000,  0.96449918
 7165.05000,  0.97226429
 7166.05000,  0.97131040
 7167.05000,  0.97718355
 7168.05000,  0.98434021
 7169.05000,  0.98817265
 7170.05000,  0.99408409
 7171.05000,  1.00205618
 7172.05000,  1.00580616
 7173.05000,  1.01261804
 7174.05000,  1.01552264
 7175.05000,  1.01927401
 7176.05000,  1.02127406
 7177.05000,  1.02154235
 7178.05000,  1.02510983
 7179.05000,  1.02960748
 7180.05000,  1.03237937
 7181.05000,  1.03370602
 7182.05000,  1.03393174
 7183.05000,  1.03491435
 7184.05000,  1.03493933
 7185.05000,  1.03178366
 7186.05000,  1.03096455
 7187.05000,  1.03215926
 7188.05000,  1.03103593
 7189.05000,  1.02912938
 7190.05000,  1.02715224
 7191.05000,  1.02608672
 7192.05000,  1.02282440
 7193.05000,  1.01966593
 7194.05000,  1.01898693
 7195.05000,  1.01671549
 7196.05000,  1.01439470
 7197.05000,  1.01073332
 7198.05000,  1.00757152
 7199.05000,  1.00570591
 7200.05000,  1.00245995
 7201.05000,  0.99970829
 7202.05000,  0.99749961
 7203.05000,  0.99583470
 7204.05000,  0.99400758
 7205.05000,  0.99363640
 7206.05000,  0.98863341
 7207.05000,  0.99031322
 7208.05000,  0.98955580
 7209.05000,  0.99060876
 7210.05000,  0.99140619
 7211.05000,  0.99334408
 7212.05000,  0.99206769
 7213.05000,  0.98998568
 7214.05000,  0.99222196
 7215.05000,  0.99423499
 7216.05000,  0.99670144
 7217.05000,  0.99883045
 7218.05000,  1.00094702
 7219.05000,  0.99907608
 7220.05000,  1.00221436
 7221.05000,  1.00325237
 7222.05000,  1.00451149
 7223.05000,  1.00630645
 7224.05000,  1.00696503
 7225.05000,  1.00773555
 7226.05000,  1.00675319
 7227.05000,  1.00770920
 7228.05000,  1.00822971
 7229.05000,  1.00767408
 7230.05000,  1.00552783
 7231.05000,  1.00834847
 7232.05000,  1.00120928
 7233.05000,  1.00013720
 7234.05000,  1.00235045
 7235.05000,  0.99998530
 7236.05000,  0.99859337
 7237.05000,  0.99945465
 7238.05000,  0.99666469
 7239.05000,  0.99534233
 7240.05000,  0.99478053
 7241.05000,  0.99043123
 7242.05000,  0.99233175
 7243.05000,  0.99124669
 7244.05000,  0.98744266
 7245.05000,  0.98694100
 7246.05000,  0.98646188
 7247.05000,  0.99134219
 7248.05000,  0.98972537
 7249.05000,  0.98714171
 7250.05000,  0.98698039
 7251.05000,  0.98766865
 7252.05000,  0.98827676
 7253.05000,  0.98922450
 7254.05000,  0.99967229
 7255.05000,  1.00534683
 7256.05000,  0.99463373
 7257.05000,  0.99564375
 7258.05000,  1.00024702
 7259.05000,  1.00843930
 7260.05000,  1.00239869
 7261.05000,  1.00346273
 7262.05000,  1.01224769
 7263.05000,  1.05550979
 7264.05000,  1.05745456
 7265.05000,  1.00952810
 7266.05000,  1.00712105
 7267.05000,  1.00760425
 7268.05000,  1.01459478
 7269.05000,  1.00707359
 7270.05000,  1.00594809
 7271.05000,  1.01071330
 7272.05000,  1.01793574
 7273.05000,  1.01462889
 7274.05000,  1.00573711
 7275.05000,  1.00409780
 7276.05000,  1.00636931
 7277.05000,  1.00369790
 7278.05000,  1.00410316
 7279.05000,  1.00677445
 7280.05000,  1.01096320
 7281.05000,  1.00318246
 7282.05000,  1.00262887
 7283.05000,  1.00385649
 7284.05000,  1.00146265
 7285.05000,  1.00023465
 7286.05000,  1.00027519
 7287.05000,  0.99896371
 7288.05000,  0.99965007
 7289.05000,  0.99701560
 7290.05000,  0.99706849
 7291.05000,  0.99400050
 7292.05000,  0.99442292
 7293.05000,  0.99384712
 7294.05000,  0.99234941
 7295.05000,  0.99130887
 7296.05000,  0.99024238
 7297.05000,  0.99082509
 7298.05000,  0.98705639
 7299.05000,  0.98869750
 7300.05000,  0.98940202
 7301.05000,  0.98913101
 7302.05000,  0.98770241
 7303.05000,  0.98629003
 7304.05000,  0.98470874
 7305.05000,  0.98377962
 7306.05000,  0.98400266
 7307.05000,  0.98465692
 7308.05000,  0.98411020
 7309.05000,  0.98500056
 7310.05000,  0.98312734
 7311.05000,  0.98294016
 7312.05000,  0.98466414
