#saved Fri Feb 13 15:41:47 2026
#saving x array=energy, y array=flat
#FeXANES_GT15_FeTiXRD_striated2_4.001: FeXANES_GT15_FeTiXRD_striated2_4.001
#------------------------------------------
# energy, FeXANES_GT15_FeTiXRD_striated2_4.001
 7032.05000,  0.00100115
 7037.05000,  0.00109806
 7042.05000,  6.72707e-4
 7047.05000,  3.24389e-4
 7052.05000, -1.72950e-5
 7057.05000, -3.91817e-4
 7062.05000, -4.60268e-4
 7067.05000, -4.56739e-4
 7072.05000, -5.98443e-4
 7077.05000, -1.96474e-4
 7082.05000,  1.39074e-4
 7087.05000,  9.84868e-4
 7092.05000,  0.00222981
 7097.05000,  0.00387940
 7102.05000,  0.00825628
 7102.35000,  0.00865765
 7102.65000,  0.00914583
 7102.95000,  0.00958283
 7103.25000,  0.00980522
 7103.55000,  0.01002214
 7103.85000,  0.01029752
 7104.15000,  0.01101092
 7104.45000,  0.01133339
 7104.75000,  0.01179219
 7105.05000,  0.01236841
 7105.35000,  0.01274952
 7105.65000,  0.01336881
 7105.95000,  0.01360031
 7106.25000,  0.01458487
 7106.55000,  0.01534908
 7106.85000,  0.01593161
 7107.15000,  0.01676937
 7107.45000,  0.01727303
 7107.75000,  0.01786169
 7108.05000,  0.01889222
 7108.35000,  0.01993524
 7108.65000,  0.02099232
 7108.95000,  0.02199287
 7109.25000,  0.02356545
 7109.55000,  0.02608408
 7109.85000,  0.02758107
 7110.15000,  0.03292868
 7110.45000,  0.03606867
 7110.75000,  0.04037880
 7111.05000,  0.04643822
 7111.35000,  0.05154221
 7111.65000,  0.06052508
 7111.95000,  0.07778019
 7112.25000,  0.08971113
 7112.55000,  0.10003257
 7112.85000,  0.10652981
 7113.15000,  0.11000156
 7113.45000,  0.10998319
 7113.75000,  0.10906951
 7114.05000,  0.10631208
 7114.35000,  0.10056833
 7114.65000,  0.09680720
 7114.95000,  0.09557558
 7115.25000,  0.09610157
 7115.55000,  0.09735784
 7115.85000,  0.10387282
 7116.15000,  0.10987992
 7116.45000,  0.11540802
 7116.75000,  0.12732178
 7117.05000,  0.13228381
 7117.35000,  0.14454345
 7117.65000,  0.16730753
 7117.95000,  0.18615367
 7118.25000,  0.19694024
 7118.55000,  0.23416673
 7118.85000,  0.26603889
 7119.15000,  0.29846267
 7119.45000,  0.33786022
 7119.75000,  0.35902031
 7120.05000,  0.40125294
 7120.35000,  0.45788066
 7120.65000,  0.47582601
 7120.95000,  0.52522166
 7121.25000,  0.54846875
 7121.55000,  0.58184290
 7121.85000,  0.62673081
 7122.15000,  0.66684557
 7122.45000,  0.71198648
 7122.75000,  0.75086283
 7123.05000,  0.79200447
 7123.35000,  0.82310119
 7123.65000,  0.86449503
 7123.95000,  0.89336264
 7124.25000,  0.92150184
 7124.55000,  0.93810117
 7124.85000,  0.96764650
 7125.15000,  0.98376209
 7125.45000,  1.01151076
 7125.75000,  1.03213007
 7126.05000,  1.05080973
 7126.35000,  1.05936148
 7126.65000,  1.08588569
 7126.95000,  1.10490886
 7127.25000,  1.12344171
 7127.55000,  1.13875050
 7127.85000,  1.15677111
 7128.15000,  1.17327247
 7128.45000,  1.18837978
 7128.75000,  1.20014710
 7129.05000,  1.20778106
 7129.35000,  1.21728511
 7129.65000,  1.21890964
 7129.95000,  1.22612619
 7130.25000,  1.22432327
 7130.55000,  1.22196934
 7130.85000,  1.22309916
 7131.15000,  1.21943254
 7131.45000,  1.21584532
 7131.75000,  1.21338405
 7132.05000,  1.20558593
 7133.05000,  1.18671692
 7134.05000,  1.16004735
 7135.05000,  1.12979074
 7136.05000,  1.11029711
 7137.05000,  1.09372313
 7138.05000,  1.08659320
 7139.05000,  1.07855356
 7140.05000,  1.06862308
 7141.05000,  1.06539852
 7142.05000,  1.05781985
 7143.05000,  1.04814109
 7144.05000,  1.04375224
 7145.05000,  1.03823315
 7146.05000,  1.03179216
 7147.05000,  1.01770664
 7148.05000,  1.00042125
 7149.05000,  0.98393974
 7150.05000,  0.96840284
 7151.05000,  0.95862804
 7152.05000,  0.95144176
 7153.05000,  0.94745532
 7154.05000,  0.94008867
 7155.05000,  0.93765384
 7156.05000,  0.93409459
 7157.05000,  0.93037916
 7158.05000,  0.93292031
 7159.05000,  0.92928243
 7160.05000,  0.93378966
 7161.05000,  0.93504548
 7162.05000,  0.94308817
 7163.05000,  0.94860351
 7164.05000,  0.94896950
 7165.05000,  0.96075474
 7166.05000,  0.96689119
 7167.05000,  0.97663509
 7168.05000,  0.97922891
 7169.05000,  0.98572312
 7170.05000,  0.99078017
 7171.05000,  0.99929387
 7172.05000,  1.00308370
 7173.05000,  1.01049331
 7174.05000,  1.01772727
 7175.05000,  1.02482663
 7176.05000,  1.02925929
 7177.05000,  1.03058332
 7178.05000,  1.03676223
 7179.05000,  1.03711790
 7180.05000,  1.04139548
 7181.05000,  1.04037502
 7182.05000,  1.04104074
 7183.05000,  1.04109835
 7184.05000,  1.03604198
 7185.05000,  1.03648678
 7186.05000,  1.03577510
 7187.05000,  1.03519921
 7188.05000,  1.03584186
 7189.05000,  1.03588767
 7190.05000,  1.03413358
 7191.05000,  1.02771004
 7192.05000,  1.02781550
 7193.05000,  1.02683290
 7194.05000,  1.02444781
 7195.05000,  1.02254901
 7196.05000,  1.01936584
 7197.05000,  1.01645671
 7198.05000,  1.01482222
 7199.05000,  1.01173637
 7200.05000,  1.00968855
 7201.05000,  1.00789239
 7202.05000,  1.00583179
 7203.05000,  1.00167294
 7204.05000,  0.99773593
 7205.05000,  0.99994923
 7206.05000,  1.00048451
 7207.05000,  0.99034976
 7208.05000,  0.99531354
 7209.05000,  0.99311843
 7210.05000,  0.99444156
 7211.05000,  0.99510629
 7212.05000,  0.99193188
 7213.05000,  0.99334295
 7214.05000,  0.99646538
 7215.05000,  0.99351743
 7216.05000,  0.99778240
 7217.05000,  0.99834799
 7218.05000,  0.99660295
 7219.05000,  0.99639187
 7220.05000,  1.00056918
 7221.05000,  0.99913762
 7222.05000,  0.99995436
 7223.05000,  1.00216221
 7224.05000,  0.99910941
 7225.05000,  1.00036703
 7226.05000,  0.99880324
 7227.05000,  0.99730033
 7228.05000,  1.00046183
 7229.05000,  0.99767072
 7230.05000,  0.99674532
 7231.05000,  0.99720575
 7232.05000,  0.99283254
 7233.05000,  0.99209914
 7234.05000,  0.99179230
 7235.05000,  0.98987352
 7236.05000,  0.99284331
 7237.05000,  0.98974858
 7238.05000,  0.99204529
 7239.05000,  0.99152563
 7240.05000,  0.99218175
 7241.05000,  0.99233847
 7242.05000,  0.99356636
 7243.05000,  0.99778960
 7244.05000,  1.00091599
 7245.05000,  0.99858966
 7246.05000,  0.99913619
 7247.05000,  1.00513528
 7248.05000,  1.00257887
 7249.05000,  1.00103974
 7250.05000,  1.00283430
 7251.05000,  1.00186078
 7252.05000,  1.00386939
 7253.05000,  1.00276362
 7254.05000,  1.00319022
 7255.05000,  1.01066313
 7256.05000,  1.00247878
 7257.05000,  1.00627112
 7258.05000,  1.00694881
 7259.05000,  1.00865047
 7260.05000,  1.00656702
 7261.05000,  1.01090953
 7262.05000,  1.01326207
 7263.05000,  1.02900174
 7264.05000,  1.03958801
 7265.05000,  1.00975322
 7266.05000,  1.01135884
 7267.05000,  1.00644003
 7268.05000,  1.00912383
 7269.05000,  1.00051759
 7270.05000,  1.00280677
 7271.05000,  1.00635383
 7272.05000,  1.01028957
 7273.05000,  1.00738221
 7274.05000,  1.00302010
 7275.05000,  1.00457135
 7276.05000,  1.00302761
 7277.05000,  1.00263773
 7278.05000,  1.00098298
 7279.05000,  1.00260634
 7280.05000,  1.00296892
 7281.05000,  1.00325740
 7282.05000,  1.00032872
 7283.05000,  1.00299769
 7284.05000,  1.00097608
 7285.05000,  1.00082957
 7286.05000,  1.00087283
 7287.05000,  0.99956376
 7288.05000,  0.99813534
 7289.05000,  0.99704038
 7290.05000,  0.99966578
 7291.05000,  0.99765930
 7292.05000,  0.99756169
 7293.05000,  0.99757207
 7294.05000,  0.99665653
 7295.05000,  0.99620168
 7296.05000,  0.99443421
 7297.05000,  0.99510567
 7298.05000,  0.99480018
 7299.05000,  0.99321993
 7300.05000,  0.99205137
 7301.05000,  0.99152685
 7302.05000,  0.99076146
 7303.05000,  0.98909997
 7304.05000,  0.98621925
 7305.05000,  0.98860992
 7306.05000,  0.98892910
 7307.05000,  0.98894670
 7308.05000,  0.98649948
 7309.05000,  0.98795709
 7310.05000,  0.98668673
 7311.05000,  0.98492825
 7312.05000,  0.98609960
