#saved Fri Feb 13 15:41:47 2026
#saving x array=energy, y array=flat
#FeXANES_GT5_flaky2_FeXRD_17.001: FeXANES_GT5_flaky2_FeXRD_17.001
#------------------------------------------
# energy, FeXANES_GT5_flaky2_FeXRD_17.001
 7032.05000,  5.16508e-4
 7037.05000,  3.10037e-4
 7042.05000,  3.80861e-5
 7047.05000, -6.22049e-6
 7052.05000, -1.79408e-4
 7057.05000, -2.83679e-4
 7062.05000, -1.80081e-4
 7067.05000,  1.10743e-5
 7072.05000, -4.63918e-5
 7077.05000,  2.23252e-4
 7082.05000,  1.13332e-4
 7087.05000,  0.00125657
 7092.05000,  0.00264337
 7097.05000,  0.00406546
 7102.05000,  0.00620177
 7102.35000,  0.00846045
 7102.65000,  0.00837675
 7102.95000,  0.00893739
 7103.25000,  0.00933586
 7103.55000,  0.00950951
 7103.85000,  0.00999578
 7104.15000,  0.01014382
 7104.45000,  0.01039049
 7104.75000,  0.01109465
 7105.05000,  0.01165185
 7105.35000,  0.01175900
 7105.65000,  0.01249210
 7105.95000,  0.01296000
 7106.25000,  0.01360333
 7106.55000,  0.01448662
 7106.85000,  0.01495945
 7107.15000,  0.01595485
 7107.45000,  0.01692836
 7107.75000,  0.01758649
 7108.05000,  0.01855871
 7108.35000,  0.01992909
 7108.65000,  0.02172118
 7108.95000,  0.02225374
 7109.25000,  0.02593529
 7109.55000,  0.02940081
 7109.85000,  0.03314547
 7110.15000,  0.04146714
 7110.45000,  0.05157244
 7110.75000,  0.06374656
 7111.05000,  0.06817373
 7111.35000,  0.07919473
 7111.65000,  0.07993071
 7111.95000,  0.07790732
 7112.25000,  0.07692681
 7112.55000,  0.07699357
 7112.85000,  0.07698357
 7113.15000,  0.07583320
 7113.45000,  0.07458085
 7113.75000,  0.07255967
 7114.05000,  0.07205855
 7114.35000,  0.07226392
 7114.65000,  0.07923644
 7114.95000,  0.08675684
 7115.25000,  0.09701548
 7115.55000,  0.10781972
 7115.85000,  0.13037154
 7116.15000,  0.14812130
 7116.45000,  0.16748214
 7116.75000,  0.21434164
 7117.05000,  0.25315150
 7117.35000,  0.28638422
 7117.65000,  0.34493431
 7117.95000,  0.39630765
 7118.25000,  0.42517159
 7118.55000,  0.50200831
 7118.85000,  0.55195790
 7119.15000,  0.58485157
 7119.45000,  0.63565218
 7119.75000,  0.66366047
 7120.05000,  0.70468807
 7120.35000,  0.72712942
 7120.65000,  0.74839501
 7120.95000,  0.78155701
 7121.25000,  0.81421024
 7121.55000,  0.84222359
 7121.85000,  0.85990357
 7122.15000,  0.89919684
 7122.45000,  0.93203170
 7122.75000,  0.97615147
 7123.05000,  1.01118279
 7123.35000,  1.04530225
 7123.65000,  1.07356573
 7123.95000,  1.09633585
 7124.25000,  1.12660036
 7124.55000,  1.14449672
 7124.85000,  1.16242391
 7125.15000,  1.17095431
 7125.45000,  1.18596204
 7125.75000,  1.19512582
 7126.05000,  1.20125785
 7126.35000,  1.20179930
 7126.65000,  1.21150407
 7126.95000,  1.21270370
 7127.25000,  1.21805190
 7127.55000,  1.22237100
 7127.85000,  1.22257487
 7128.15000,  1.22602353
 7128.45000,  1.22809754
 7128.75000,  1.22966756
 7129.05000,  1.22832497
 7129.35000,  1.22645607
 7129.65000,  1.22393762
 7129.95000,  1.21835084
 7130.25000,  1.21572555
 7130.55000,  1.20822866
 7130.85000,  1.19809923
 7131.15000,  1.19004599
 7131.45000,  1.18803816
 7131.75000,  1.17868361
 7132.05000,  1.17339038
 7133.05000,  1.14872097
 7134.05000,  1.13336850
 7135.05000,  1.12850496
 7136.05000,  1.09934918
 7137.05000,  1.07909462
 7138.05000,  1.07140463
 7139.05000,  1.06300025
 7140.05000,  1.04865567
 7141.05000,  1.03997364
 7142.05000,  1.03094924
 7143.05000,  1.01963110
 7144.05000,  1.00222662
 7145.05000,  0.99238390
 7146.05000,  0.97925079
 7147.05000,  0.96093011
 7148.05000,  0.95018832
 7149.05000,  0.93834828
 7150.05000,  0.92928650
 7151.05000,  0.91977513
 7152.05000,  0.91779093
 7153.05000,  0.91567936
 7154.05000,  0.91248210
 7155.05000,  0.91409432
 7156.05000,  0.91879695
 7157.05000,  0.92094819
 7158.05000,  0.92294382
 7159.05000,  0.92826859
 7160.05000,  0.93432507
 7161.05000,  0.93802301
 7162.05000,  0.94204107
 7163.05000,  0.95080629
 7164.05000,  0.95902373
 7165.05000,  0.96434052
 7166.05000,  0.96905670
 7167.05000,  0.97522439
 7168.05000,  0.98394630
 7169.05000,  0.98872576
 7170.05000,  0.99390752
 7171.05000,  1.00531785
 7172.05000,  1.00940265
 7173.05000,  1.01501336
 7174.05000,  1.01698192
 7175.05000,  1.02218680
 7176.05000,  1.02374055
 7177.05000,  1.02924475
 7178.05000,  1.02838953
 7179.05000,  1.03212924
 7180.05000,  1.02978184
 7181.05000,  1.03091637
 7182.05000,  1.03237208
 7183.05000,  1.03513012
 7184.05000,  1.03555649
 7185.05000,  1.03473840
 7186.05000,  1.03652277
 7187.05000,  1.03554192
 7188.05000,  1.03435657
 7189.05000,  1.03341633
 7190.05000,  1.03154375
 7191.05000,  1.03053799
 7192.05000,  1.02951104
 7193.05000,  1.02408617
 7194.05000,  1.02144048
 7195.05000,  1.02063661
 7196.05000,  1.01991666
 7197.05000,  1.01595330
 7198.05000,  1.01517061
 7199.05000,  1.01479778
 7200.05000,  1.01085431
 7201.05000,  1.00792031
 7202.05000,  1.00759722
 7203.05000,  1.00371295
 7204.05000,  0.99935455
 7205.05000,  0.99790657
 7206.05000,  1.00091667
 7207.05000,  0.99787299
 7208.05000,  0.99697346
 7209.05000,  0.99538697
 7210.05000,  0.99427039
 7211.05000,  0.99546706
 7212.05000,  0.99387856
 7213.05000,  0.99151834
 7214.05000,  0.99236259
 7215.05000,  0.99212003
 7216.05000,  0.98997581
 7217.05000,  0.99242286
 7218.05000,  0.99108463
 7219.05000,  0.98925275
 7220.05000,  0.99073889
 7221.05000,  0.99093378
 7222.05000,  0.98889994
 7223.05000,  0.98856880
 7224.05000,  0.98961354
 7225.05000,  0.99169839
 7226.05000,  0.98855972
 7227.05000,  0.99012081
 7228.05000,  0.98978816
 7229.05000,  0.98962048
 7230.05000,  0.99063669
 7231.05000,  0.99030666
 7232.05000,  0.98934384
 7233.05000,  0.98794358
 7234.05000,  0.98900641
 7235.05000,  0.99204318
 7236.05000,  0.99210252
 7237.05000,  0.99321476
 7238.05000,  0.99383091
 7239.05000,  0.99359159
 7240.05000,  0.99449188
 7241.05000,  0.99440131
 7242.05000,  0.99519142
 7243.05000,  0.99643912
 7244.05000,  0.99670642
 7245.05000,  0.99865246
 7246.05000,  0.99931432
 7247.05000,  1.00415540
 7248.05000,  0.99986847
 7249.05000,  1.00184770
 7250.05000,  1.00124605
 7251.05000,  1.00202462
 7252.05000,  1.00288041
 7253.05000,  1.00325977
 7254.05000,  1.00652564
 7255.05000,  1.01062911
 7256.05000,  1.00673937
 7257.05000,  1.00258034
 7258.05000,  1.00640507
 7259.05000,  1.01040210
 7260.05000,  1.00809267
 7261.05000,  1.00892284
 7262.05000,  1.01742497
 7263.05000,  1.02084901
 7264.05000,  1.01913045
 7265.05000,  1.01095789
 7266.05000,  1.01137107
 7267.05000,  1.01166546
 7268.05000,  1.01306347
 7269.05000,  1.00891869
 7270.05000,  1.00792766
 7271.05000,  1.01212864
 7272.05000,  1.01404541
 7273.05000,  1.00955024
 7274.05000,  1.00866218
 7275.05000,  1.00715270
 7276.05000,  1.00597891
 7277.05000,  1.00571999
 7278.05000,  1.00645406
 7279.05000,  1.00612426
 7280.05000,  1.01169608
 7281.05000,  1.00516999
 7282.05000,  1.00544301
 7283.05000,  1.00638798
 7284.05000,  1.00289973
 7285.05000,  1.00240369
 7286.05000,  1.00152588
 7287.05000,  1.00170827
 7288.05000,  1.00078904
 7289.05000,  1.00100363
 7290.05000,  1.00220509
 7291.05000,  0.99828951
 7292.05000,  0.99770515
 7293.05000,  0.99884403
 7294.05000,  0.99987659
 7295.05000,  0.99763140
 7296.05000,  0.99615618
 7297.05000,  0.99348241
 7298.05000,  0.99412648
 7299.05000,  0.99472624
 7300.05000,  0.99440084
 7301.05000,  0.99392153
 7302.05000,  0.99419645
 7303.05000,  0.99089788
 7304.05000,  0.99135486
 7305.05000,  0.99357159
 7306.05000,  0.99018966
 7307.05000,  0.99051994
 7308.05000,  0.99218394
 7309.05000,  0.98996438
 7310.05000,  0.99065856
 7311.05000,  0.99028182
 7312.05000,  0.99145257
